TIME,ANGLE,ANGULAR_VELOCITY
0.00,-1.570796,0.000000
0.01,-1.570306,0.098100
0.02,-1.568834,0.196200
0.03,-1.566382,0.294299
0.04,-1.562948,0.392398
0.05,-1.558534,0.490493
0.06,-1.553139,0.588582
0.07,-1.546762,0.686660
0.08,-1.539405,0.784723
0.09,-1.531068,0.882761
0.10,-1.521750,0.980764
0.11,-1.511453,1.078720
0.12,-1.500176,1.176613
0.13,-1.487921,1.274424
0.14,-1.474688,1.372132
0.15,-1.460479,1.469710
0.16,-1.445294,1.567128
0.17,-1.429137,1.664354
0.18,-1.412008,1.761350
0.19,-1.393911,1.858071
0.20,-1.374848,1.954472
0.21,-1.354822,2.050498
0.22,-1.333839,2.146093
0.23,-1.311902,2.241194
0.24,-1.289017,2.335731
0.25,-1.265190,2.429630
0.26,-1.240427,2.522812
0.27,-1.214736,2.615191
0.28,-1.188126,2.706675
0.29,-1.160606,2.797167
0.30,-1.132186,2.886564
0.31,-1.102879,2.974758
0.32,-1.072696,3.061635
0.33,-1.041651,3.147077
0.34,-1.009759,3.230961
0.35,-0.977037,3.313157
0.36,-0.943502,3.393535
0.37,-0.909173,3.471959
0.38,-0.874070,3.548290
0.39,-0.838215,3.622386
0.40,-0.801630,3.694107
0.41,-0.764341,3.763306
0.42,-0.726373,3.829841
0.43,-0.687753,3.893567
0.44,-0.648511,3.954342
0.45,-0.608677,4.012026
0.46,-0.568282,4.066481
0.47,-0.527358,4.117574
0.48,-0.485942,4.165177
0.49,-0.444067,4.209168
0.50,-0.401771,4.249430
0.51,-0.359091,4.285857
0.52,-0.316067,4.318348
0.53,-0.272738,4.346813
0.54,-0.229144,4.371173
0.55,-0.185328,4.391358
0.56,-0.141331,4.407309
0.57,-0.097196,4.418981
0.58,-0.052966,4.426340
0.59,-0.008684,4.429363
0.60,0.035607,4.428043
0.61,0.079863,4.422382
0.62,0.124040,4.412398
0.63,0.168096,4.398120
0.64,0.211988,4.379589
0.65,0.255674,4.356858
0.66,0.299112,4.329994
0.67,0.342260,4.299071
0.68,0.385080,4.264176
0.69,0.427531,4.225405
0.70,0.469575,4.182863
0.71,0.511176,4.136662
0.72,0.552297,4.086922
0.73,0.592903,4.033770
0.74,0.632961,3.977336
0.75,0.672439,3.917756
0.76,0.711306,3.855171
0.77,0.749533,3.789720
0.78,0.787092,3.721548
0.79,0.823956,3.650799
0.80,0.860100,3.577617
0.81,0.895500,3.502145
0.82,0.930135,3.424525
0.83,0.963984,3.344898
0.84,0.997027,3.263398
0.85,1.029246,3.180161
0.86,1.060625,3.095315
0.87,1.091148,3.008986
0.88,1.120800,2.921294
0.89,1.149569,2.832355
0.90,1.177443,2.742280
0.91,1.204411,2.651173
0.92,1.230464,2.559134
0.93,1.255591,2.466257
0.94,1.279786,2.372629
0.95,1.303042,2.278333
0.96,1.325351,2.183445
0.97,1.346709,2.088036
0.98,1.367110,1.992171
0.99,1.386551,1.895911
1.00,1.405027,1.799309
1.01,1.422536,1.702416
1.02,1.439075,1.605276
1.03,1.454641,1.507928
1.04,1.469233,1.410409
1.05,1.482849,1.312749
1.06,1.495487,1.214975
1.07,1.507148,1.117112
1.08,1.517829,1.019179
1.09,1.527531,0.921192
1.10,1.536253,0.823167
1.11,1.543995,0.725113
1.12,1.550755,0.627040
1.13,1.556535,0.528954
1.14,1.561334,0.430861
1.15,1.565152,0.332764
1.16,1.567990,0.234665
1.17,1.569846,0.136565
1.18,1.570721,0.038465
1.19,1.570615,-0.059635
1.20,1.569528,-0.157735
1.21,1.567460,-0.255835
1.22,1.564412,-0.353934
1.23,1.560382,-0.452030
1.24,1.555371,-0.550122
1.25,1.549379,-0.648205
1.26,1.542407,-0.746275
1.27,1.534454,-0.844324
1.28,1.525520,-0.942342
1.29,1.515607,-1.040318
1.30,1.504714,-1.138238
1.31,1.492843,-1.236084
1.32,1.479993,-1.333835
1.33,1.466166,-1.431467
1.34,1.451364,-1.528952
1.35,1.435588,-1.626258
1.36,1.418840,-1.723348
1.37,1.401122,-1.820182
1.38,1.382437,-1.916715
1.39,1.362789,-2.012894
1.40,1.342181,-2.108666
1.41,1.320617,-2.203968
1.42,1.298103,-2.298735
1.43,1.274644,-2.392894
1.44,1.250247,-2.486367
1.45,1.224919,-2.579071
1.46,1.198669,-2.670917
1.47,1.171504,-2.761809
1.48,1.143436,-2.851648
1.49,1.114475,-2.940328
1.50,1.084634,-3.027735
1.51,1.053925,-3.113755
1.52,1.022364,-3.198264
1.53,0.989965,-3.281138
1.54,0.956747,-3.362245
1.55,0.922727,-3.441451
1.56,0.887925,-3.518619
1.57,0.852362,-3.593609
1.58,0.816060,-3.666278
1.59,0.779044,-3.736483
1.60,0.741339,-3.804080
1.61,0.702972,-3.868924
1.62,0.663970,-3.930873
1.63,0.624365,-3.989785
1.64,0.584185,-4.045523
1.65,0.543465,-4.097949
1.66,0.502238,-4.146936
1.67,0.460538,-4.192357
1.68,0.418403,-4.234095
1.69,0.375869,-4.272038
1.70,0.332975,-4.306083
1.71,0.289761,-4.336137
1.72,0.246266,-4.362116
1.73,0.202532,-4.383945
1.74,0.158601,-4.401563
1.75,0.114515,-4.414917
1.76,0.070317,-4.423970
1.77,0.026050,-4.428695
1.78,-0.018242,-4.429078
1.79,-0.062517,-4.425118
1.80,-0.106730,-4.416827
1.81,-0.150839,-4.404228
1.82,-0.194801,-4.387358
1.83,-0.238572,-4.366267
1.84,-0.282112,-4.341015
1.85,-0.325379,-4.311674
1.86,-0.368332,-4.278326
1.87,-0.410932,-4.241063
1.88,-0.453141,-4.199986
1.89,-0.494920,-4.155206
1.90,-0.536233,-4.106839
1.91,-0.577045,-4.055009
1.92,-0.617322,-3.999846
1.93,-0.657031,-3.941484
1.94,-0.696141,-3.880060
1.95,-0.734623,-3.815715
1.96,-0.772446,-3.748593
1.97,-0.809586,-3.678837
1.98,-0.846015,-3.606592
1.99,-0.881710,-3.532001
2.00,-0.916648,-3.455207
2.01,-0.950807,-3.376350
2.02,-0.984168,-3.295568
2.03,-1.016712,-3.212997
2.04,-1.048423,-3.128766
2.05,-1.079283,-3.043004
2.06,-1.109278,-2.955833
2.07,-1.138395,-2.867369
2.08,-1.166621,-2.777727
2.09,-1.193946,-2.687013
2.10,-1.220358,-2.595328
2.11,-1.245850,-2.502768
2.12,-1.270411,-2.409424
2.13,-1.294036,-2.315381
2.14,-1.316717,-2.220716
2.15,-1.338448,-2.125503
2.16,-1.359225,-2.029810
2.17,-1.379043,-1.933698
2.18,-1.397898,-1.837224
2.19,-1.415786,-1.740439
2.20,-1.432706,-1.643391
2.21,-1.448654,-1.546120
2.22,-1.463628,-1.448664
2.23,-1.477626,-1.351056
2.24,-1.490648,-1.253324
2.25,-1.502692,-1.155493
2.26,-1.513758,-1.057585
2.27,-1.523844,-0.959618
2.28,-1.532950,-0.861606
2.29,-1.541076,-0.763562
2.30,-1.548221,-0.665496
2.31,-1.554386,-0.567414
2.32,-1.559570,-0.469324
2.33,-1.563772,-0.371228
2.34,-1.566994,-0.273129
2.35,-1.569235,-0.175030
2.36,-1.570495,-0.076930
2.37,-1.570773,0.021170
2.38,-1.570071,0.119270
2.39,-1.568388,0.217370
2.40,-1.565724,0.315470
2.41,-1.562079,0.413567
2.42,-1.557453,0.511661
2.43,-1.551845,0.609749
2.44,-1.545258,0.707824
2.45,-1.537689,0.805882
2.46,-1.529140,0.903914
2.47,-1.519611,1.001908
2.48,-1.509102,1.099852
2.49,-1.497614,1.197729
2.50,-1.485148,1.295519
2.51,-1.471704,1.393201
2.52,-1.457284,1.490748
2.53,-1.441890,1.588128
2.54,-1.425522,1.685307
2.55,-1.408184,1.782247
2.56,-1.389878,1.878904
2.57,-1.370607,1.975228
2.58,-1.350375,2.071167
2.59,-1.329186,2.166661
2.60,-1.307044,2.261645
2.61,-1.283955,2.356051
2.62,-1.259925,2.449803
2.63,-1.234961,2.542819
2.64,-1.209071,2.635012
2.65,-1.182264,2.726291
2.66,-1.154549,2.816555
2.67,-1.125936,2.905702
2.68,-1.096439,2.993622
2.69,-1.066068,3.080200
2.70,-1.034840,3.165316
2.71,-1.002767,3.248846
2.72,-0.969868,3.330662
2.73,-0.936160,3.410629
2.74,-0.901662,3.488613
2.75,-0.866395,3.564474
2.76,-0.830380,3.638070
2.77,-0.793642,3.709258
2.78,-0.756204,3.777895
2.79,-0.718093,3.843836
2.80,-0.679337,3.906937
2.81,-0.639964,3.967057
2.82,-0.600006,4.024055
2.83,-0.559494,4.077796
2.84,-0.518461,4.128147
2.85,-0.476943,4.174980
2.86,-0.434974,4.218176
2.87,-0.392592,4.257620
2.88,-0.349834,4.293205
2.89,-0.306741,4.324835
2.90,-0.263351,4.352420
2.91,-0.219706,4.375885
2.92,-0.175847,4.395160
2.93,-0.131817,4.410192
2.94,-0.087658,4.420935
2.95,-0.043413,4.427360
2.96,0.000875,4.429446
2.97,0.045162,4.427188
2.98,0.089404,4.420593
2.99,0.133559,4.409679
3.00,0.177584,4.394479
3.01,0.221435,4.375037
3.02,0.265070,4.351408
3.03,0.308449,4.323661
3.04,0.351530,4.291873
3.05,0.394273,4.256134
3.06,0.436640,4.216540
3.07,0.478592,4.173198
3.08,0.520092,4.126223
3.09,0.561105,4.075736
3.10,0.601595,4.021864
3.11,0.641531,3.964740
3.12,0.680880,3.904500
3.13,0.719611,3.841284
3.14,0.757696,3.775234
3.15,0.795107,3.706493
3.16,0.831817,3.635207
3.17,0.867803,3.561519
3.18,0.903040,3.485571
3.19,0.937507,3.407507
3.20,0.971184,3.327463
3.21,1.004050,3.245578
3.22,1.036090,3.161982
3.23,1.067285,3.076806
3.24,1.097621,2.990173
3.25,1.127084,2.902202
3.26,1.155661,2.813009
3.27,1.183340,2.722703
3.28,1.210111,2.631386
3.29,1.235965,2.539159
3.30,1.260892,2.446112
3.31,1.284885,2.352333
3.32,1.307936,2.257903
3.33,1.330041,2.162897
3.34,1.351193,2.067384
3.35,1.371387,1.971429
3.36,1.390620,1.875091
3.37,1.408888,1.778422
3.38,1.426187,1.681472
3.39,1.442516,1.584284
3.40,1.457872,1.486896
3.41,1.472254,1.389344
3.42,1.485659,1.291658
3.43,1.498087,1.193863
3.44,1.509536,1.095983
3.45,1.520006,0.998037
3.46,1.529496,0.900041
3.47,1.538007,0.802008
3.48,1.545537,0.703949
3.49,1.552086,0.605873
3.50,1.557654,0.507786
3.51,1.562241,0.409691
3.52,1.565848,0.311594
3.53,1.568473,0.213494
3.54,1.570118,0.115394
3.55,1.570781,0.017294
3.56,1.570464,-0.080806
3.57,1.569165,-0.178906
3.58,1.566885,-0.277005
3.59,1.563625,-0.375104
3.60,1.559383,-0.473199
3.61,1.554161,-0.571290
3.62,1.547958,-0.669371
3.63,1.540774,-0.767436
3.64,1.532609,-0.865479
3.65,1.523464,-0.963490
3.66,1.513339,-1.061455
3.67,1.502235,-1.159360
3.68,1.490152,-1.257188
3.69,1.477092,-1.354915
3.70,1.463054,-1.452518
3.71,1.448042,-1.549967
3.72,1.432056,-1.647230
3.73,1.415098,-1.744269
3.74,1.397171,-1.841042
3.75,1.378278,-1.937502
3.76,1.358422,-2.033599
3.77,1.337608,-2.129275
3.78,1.315839,-2.224467
3.79,1.293120,-2.319109
3.80,1.269458,-2.413126
3.81,1.244860,-2.506441
3.82,1.219332,-2.598967
3.83,1.192884,-2.690616
3.84,1.165523,-2.781290
3.85,1.137261,-2.870888
3.86,1.108109,-2.959302
3.87,1.078080,-3.046420
3.88,1.047186,-3.132124
3.89,1.015442,-3.216291
3.90,0.982865,-3.298795
3.91,0.949472,-3.379503
3.92,0.915282,-3.458281
3.93,0.880314,-3.534991
3.94,0.844589,-3.609492
3.95,0.808132,-3.681642
3.96,0.770965,-3.751296
3.97,0.733114,-3.818311
3.98,0.694608,-3.882543
3.99,0.655473,-3.943848
4.00,0.615741,-4.002087
4.01,0.575442,-4.057121
4.02,0.534610,-4.108816
4.03,0.493278,-4.157044
4.04,0.451481,-4.201680
4.05,0.409256,-4.242608
4.06,0.366641,-4.279718
4.07,0.323675,-4.312910
4.08,0.280397,-4.342091
4.09,0.236847,-4.367180
4.10,0.193067,-4.388105
4.11,0.149099,-4.404807
4.12,0.104985,-4.417236
4.13,0.060768,-4.425357
4.14,0.016492,-4.429146
4.15,-0.027800,-4.428591
4.16,-0.072065,-4.423695
4.17,-0.116259,-4.414471
4.18,-0.160340,-4.400947
4.19,-0.204264,-4.383162
4.20,-0.247989,-4.361168
4.21,-0.291474,-4.335027
4.22,-0.334676,-4.304813
4.23,-0.377557,-4.270612
4.24,-0.420076,-4.232517
4.25,-0.462194,-4.190632
4.26,-0.503876,-4.145067
4.27,-0.545084,-4.095942
4.28,-0.585783,-4.043382
4.29,-0.625940,-3.987517
4.30,-0.665523,-3.928482
4.31,-0.704500,-3.866416
4.32,-0.742842,-3.801460
4.33,-0.780520,-3.733758
4.34,-0.817508,-3.663452
4.35,-0.853781,-3.590689
4.36,-0.889314,-3.515610
4.37,-0.924086,-3.438359
4.38,-0.958075,-3.359075
4.39,-0.991261,-3.277896
4.40,-1.023627,-3.194955
4.41,-1.055155,-3.110384
4.42,-1.085829,-3.024307
4.43,-1.115636,-2.936847
4.44,-1.144562,-2.848120
4.45,-1.172595,-2.758238
4.46,-1.199723,-2.667305
4.47,-1.225938,-2.575424
4.48,-1.251229,-2.482687
4.49,-1.275589,-2.389186
4.50,-1.299010,-2.295002
4.51,-1.321487,-2.200212
4.52,-1.343013,-2.104890
4.53,-1.363583,-2.009102
4.54,-1.383194,-1.912907
4.55,-1.401840,-1.816362
4.56,-1.419520,-1.719517
4.57,-1.436230,-1.622417
4.58,-1.451967,-1.525103
4.59,-1.466731,-1.427612
4.60,-1.480519,-1.329974
4.61,-1.493330,-1.232219
4.62,-1.505163,-1.134370
4.63,-1.516017,-1.036448
4.64,-1.525892,-0.938470
4.65,-1.534787,-0.840450
4.66,-1.542701,-0.742401
4.67,-1.549635,-0.644330
4.68,-1.555588,-0.546247
4.69,-1.560560,-0.448154
4.70,-1.564551,-0.350058
4.71,-1.567561,-0.251959
4.72,-1.569590,-0.153859
4.73,-1.570638,-0.055759
4.74,-1.570705,0.042341
4.75,-1.569791,0.140441
4.76,-1.567896,0.238541
4.77,-1.565020,0.336640
4.78,-1.561163,0.434737
4.79,-1.556326,0.532830
4.80,-1.550507,0.630915
4.81,-1.543707,0.728987
4.82,-1.535927,0.827040
4.83,-1.527167,0.925065
4.84,-1.517426,1.023049
4.85,-1.506706,1.120980
4.86,-1.495007,1.218840
4.87,-1.482329,1.316610
4.88,-1.468675,1.414265
4.89,-1.454044,1.511778
4.90,-1.438440,1.609118
4.91,-1.421863,1.706249
4.92,-1.404316,1.803132
4.93,-1.385801,1.899721
4.94,-1.366322,1.995967
4.95,-1.345883,2.091814
4.96,-1.324488,2.187204
4.97,-1.302141,2.282070
4.98,-1.278848,2.376341
4.99,-1.254616,2.469941
5.00,-1.229452,2.562787
5.01,-1.203363,2.654791
5.02,-1.176359,2.745859
5.03,-1.148449,2.835892
5.04,-1.119645,2.924783
5.05,-1.089958,3.012423
5.06,-1.059401,3.098696
5.07,-1.027989,3.183481
5.08,-0.995737,3.266652
5.09,-0.962662,3.348080
5.10,-0.928782,3.427631
5.11,-0.894116,3.505169
5.12,-0.858685,3.580553
5.13,-0.822512,3.653641
5.14,-0.785621,3.724291
5.15,-0.748035,3.792359
5.16,-0.709783,3.857699
5.17,-0.670891,3.920168
5.18,-0.631389,3.979626
5.19,-0.591309,4.035933
5.20,-0.550682,4.088953
5.21,-0.509541,4.138555
5.22,-0.467922,4.184614
5.23,-0.425861,4.227009
5.24,-0.383395,4.265629
5.25,-0.340561,4.300369
5.26,-0.297401,4.331133
5.27,-0.253952,4.357835
5.28,-0.210258,4.380401
5.29,-0.166358,4.398765
5.30,-0.122297,4.412874
5.31,-0.078115,4.422688
5.32,-0.033857,4.428177
5.33,0.010434,4.429326
5.34,0.054715,4.426131
5.35,0.098942,4.418602
5.36,0.143072,4.406760
5.37,0.187063,4.390640
5.38,0.230871,4.370290
5.39,0.274455,4.345766
5.40,0.317773,4.317140
5.41,0.360784,4.284492
5.42,0.403450,4.247912
5.43,0.445730,4.207500
5.44,0.487587,4.163364
5.45,0.528985,4.115621
5.46,0.569888,4.064392
5.47,0.610262,4.009807
5.48,0.650073,3.951999
5.49,0.689291,3.891104
5.50,0.727886,3.827265
5.51,0.765827,3.760622
5.52,0.803089,3.691320
5.53,0.839645,3.619503
5.54,0.875471,3.545315
5.55,0.910544,3.468899
5.56,0.944842,3.390396
5.57,0.978346,3.309943
5.58,1.011035,3.227678
5.59,1.042894,3.143730
5.60,1.073905,3.058229
5.61,1.104053,2.971297
5.62,1.133326,2.883054
5.63,1.161710,2.793611
5.64,1.189195,2.703078
5.65,1.215769,2.611557
5.66,1.241423,2.519145
5.67,1.266149,2.425933
5.68,1.289939,2.332007
5.69,1.312787,2.237446
5.70,1.334686,2.142325
5.71,1.355632,2.046712
5.72,1.375619,1.950669
5.73,1.394644,1.854255
5.74,1.412703,1.757522
5.75,1.429794,1.660517
5.76,1.445913,1.563283
5.77,1.461059,1.465857
5.78,1.475229,1.368273
5.79,1.488424,1.270561
5.80,1.500640,1.172746
5.81,1.511878,1.074851
5.82,1.522137,0.976893
5.83,1.531416,0.878888
5.84,1.539715,0.780849
5.85,1.547033,0.682785
5.86,1.553370,0.584706
5.87,1.558727,0.486617
5.88,1.563103,0.388522
5.89,1.566497,0.290423
5.90,1.568911,0.192324
5.91,1.570344,0.094224
5.92,1.570796,-0.003876
5.93,1.570266,-0.101976
5.94,1.568756,-0.200076
5.95,1.566265,-0.298175
5.96,1.562793,-0.396274
5.97,1.558339,-0.494368
5.98,1.552905,-0.592457
5.99,1.546490,-0.690535
6.00,1.539095,-0.788597
6.01,1.530718,-0.886634
6.02,1.521362,-0.984635
6.03,1.511026,-1.082589
6.04,1.499710,-1.180479
6.05,1.487417,-1.278287
6.06,1.474145,-1.375990
6.07,1.459897,-1.473562
6.08,1.444674,-1.570974
6.09,1.428478,-1.668191
6.10,1.411311,-1.765177
6.11,1.393176,-1.861886
6.12,1.374075,-1.958273
6.13,1.354011,-2.054284
6.14,1.332990,-2.149861
6.15,1.311016,-2.244940
6.16,1.288093,-2.339454
6.17,1.264229,-2.433326
6.18,1.239429,-2.526478
6.19,1.213702,-2.618823
6.20,1.187056,-2.710270
6.21,1.159500,-2.800720
6.22,1.131045,-2.890072
6.23,1.101703,-2.978216
6.24,1.071485,-3.065039
6.25,1.040407,-3.150422
6.26,1.008482,-3.234241
6.27,0.975727,-3.316369
6.28,0.942161,-3.396672
6.29,0.907801,-3.475015
6.30,0.872667,-3.551261
6.31,0.836783,-3.625266
6.32,0.800170,-3.696890
6.33,0.762853,-3.765987
6.34,0.724859,-3.832413
6.35,0.686215,-3.896025
6.36,0.646949,-3.956681
6.37,0.607091,-4.014240
6.38,0.566674,-4.068564
6.39,0.525731,-4.119522
6.40,0.484296,-4.166985
6.41,0.442404,-4.210830
6.42,0.400092,-4.250943
6.43,0.357398,-4.287216
6.44,0.314360,-4.319550
6.45,0.271020,-4.347854
6.46,0.227417,-4.372050
6.47,0.183593,-4.392069
6.48,0.139590,-4.407852
6.49,0.095450,-4.419354
6.50,0.051217,-4.426542
6.51,0.006934,-4.429394
6.52,-0.037356,-4.427902
6.53,-0.081610,-4.422070
6.54,-0.125783,-4.411915
6.55,-0.169834,-4.397468
6.56,-0.213719,-4.378770
6.57,-0.257395,-4.355875
6.58,-0.300822,-4.328848
6.59,-0.343959,-4.297767
6.60,-0.386764,-4.262717
6.61,-0.429200,-4.223795
6.62,-0.471228,-4.181106
6.63,-0.512810,-4.134763
6.64,-0.553911,-4.084886
6.65,-0.594496,-4.031601
6.66,-0.634532,-3.975041
6.67,-0.673987,-3.915340
6.68,-0.712829,-3.852638
6.69,-0.751030,-3.787077
6.70,-0.788562,-3.718801
6.71,-0.825397,-3.647953
6.72,-0.861513,-3.574677
6.73,-0.896883,-3.499118
6.74,-0.931488,-3.421416
6.75,-0.965305,-3.341712
6.76,-0.998316,-3.260141
6.77,-1.030502,-3.176838
6.78,-1.061847,-3.091931
6.79,-1.092336,-3.005546
6.80,-1.121954,-2.917803
6.81,-1.150688,-2.828817
6.82,-1.178526,-2.738699
6.83,-1.205458,-2.647554
6.84,-1.231474,-2.555480
6.85,-1.256565,-2.462571
6.86,-1.280723,-2.368915
6.87,-1.303941,-2.274594
6.88,-1.326213,-2.179684
6.89,-1.347533,-2.084256
6.90,-1.367897,-1.988375
6.91,-1.387299,-1.892100
6.92,-1.405737,-1.795486
6.93,-1.423208,-1.698582
6.94,-1.439708,-1.601433
6.95,-1.455236,-1.504078
6.96,-1.469789,-1.406552
6.97,-1.483367,-1.308888
6.98,-1.495967,-1.211110
6.99,-1.507589,-1.113244
7.00,-1.518231,-1.015308
7.01,-1.527894,-0.917320
7.02,-1.536578,-0.819293
7.03,-1.544280,-0.721238
7.04,-1.551002,-0.623164
7.05,-1.556743,-0.525078
7.06,-1.561504,-0.426985
7.07,-1.565283,-0.328888
7.08,-1.568082,-0.230789
7.09,-1.569899,-0.132689
7.10,-1.570735,-0.034589
7.11,-1.570591,0.063511
7.12,-1.569465,0.161611
7.13,-1.567359,0.259711
7.14,-1.564271,0.357810
7.15,-1.560202,0.455906
7.16,-1.555153,0.553998
7.17,-1.549122,0.652081
7.18,-1.542111,0.750150
7.19,-1.534119,0.848197
7.20,-1.525147,0.946214
7.21,-1.515195,1.044188
7.22,-1.504264,1.142106
7.23,-1.492353,1.239948
7.24,-1.479465,1.337695
7.25,-1.465600,1.435321
7.26,-1.450759,1.532800
7.27,-1.434945,1.630098
7.28,-1.418158,1.727179
7.29,-1.400402,1.824003
7.30,-1.381679,1.920522
7.31,-1.361993,2.016687
7.32,-1.341347,2.112441
7.33,-1.319745,2.207723
7.34,-1.297194,2.302467
7.35,-1.273698,2.396600
7.36,-1.249264,2.490045
7.37,-1.223900,2.582717
7.38,-1.197613,2.674527
7.39,-1.170412,2.765380
7.40,-1.142309,2.855175
7.41,-1.113313,2.943806
7.42,-1.083437,3.031161
7.43,-1.052694,3.117123
7.44,-1.021099,3.201570
7.45,-0.988668,3.284377
7.46,-0.955418,3.365411
7.47,-0.921366,3.444539
7.48,-0.886534,3.521624
7.49,-0.850941,3.596525
7.50,-0.814611,3.669099
7.51,-0.777567,3.739204
7.52,-0.739836,3.806695
7.53,-0.701443,3.871428
7.54,-0.662417,3.933259
7.55,-0.622788,3.992049
7.56,-0.582586,4.047658
7.57,-0.541846,4.099951
7.58,-0.500599,4.148799
7.59,-0.458881,4.194077
7.60,-0.416730,4.235667
7.61,-0.374181,4.273458
7.62,-0.331273,4.307347
7.63,-0.288047,4.337242
7.64,-0.244542,4.363057
7.65,-0.200800,4.384721
7.66,-0.156862,4.402171
7.67,-0.112771,4.415357
7.68,-0.068569,4.424239
7.69,-0.024300,4.428793
7.70,0.019992,4.429004
7.71,0.064265,4.424873
7.72,0.108475,4.416410
7.73,0.152579,4.403642
7.74,0.196534,4.386605
7.75,0.240297,4.365348
7.76,0.283827,4.339933
7.77,0.327082,4.310432
7.78,0.370022,4.276927
7.79,0.412608,4.239511
7.80,0.454800,4.198286
7.81,0.496561,4.153362
7.82,0.537855,4.104856
7.83,0.578647,4.052892
7.84,0.618902,3.997600
7.85,0.658588,3.939114
7.86,0.697674,3.877572
7.87,0.736130,3.813115
7.88,0.773927,3.745886
7.89,0.811039,3.676029
7.90,0.847439,3.603689
7.91,0.883105,3.529008
7.92,0.918012,3.452129
7.93,0.952140,3.373194
7.94,0.985470,3.292339
7.95,1.017981,3.209699
7.96,1.049658,3.125406
7.97,1.080484,3.039586
7.98,1.110445,2.952361
7.99,1.139527,2.863849
8.00,1.167718,2.774162
8.01,1.195007,2.683408
8.02,1.221383,2.591686
8.03,1.246838,2.499094
8.04,1.271362,2.405721
8.05,1.294950,2.311652
8.06,1.317593,2.216964
8.07,1.339287,2.121731
8.08,1.360026,2.026020
8.09,1.379806,1.929892
8.10,1.398623,1.833405
8.11,1.416473,1.736609
8.12,1.433354,1.639551
8.13,1.449264,1.542273
8.14,1.464199,1.444810
8.15,1.478159,1.347197
8.16,1.491143,1.249460
8.17,1.503148,1.151626
8.18,1.514175,1.053716
8.19,1.524222,0.955746
8.20,1.533290,0.857733
8.21,1.541377,0.759688
8.22,1.548483,0.661621
8.23,1.554609,0.563539
8.24,1.559754,0.465448
8.25,1.563918,0.367352
8.26,1.567101,0.269253
8.27,1.569303,0.171153
8.28,1.570524,0.073054
8.29,1.570764,-0.025046
8.30,1.570023,-0.123146
8.31,1.568301,-0.221246
8.32,1.565598,-0.319346
8.33,1.561915,-0.417443
