TIME,ANGLE,ANGULAR_VELOCITY
0.00, 0.785397, 1.000000
0.01, 0.795050, 0.930295
0.02, 0.804001, 0.859951
0.03, 0.812247, 0.789022
0.04, 0.819780, 0.717560
0.05, 0.826596, 0.645618
0.06, 0.832691, 0.573246
0.07, 0.838060, 0.500497
0.08, 0.842700, 0.427418
0.09, 0.846607, 0.354061
0.10, 0.849780, 0.280474
0.11, 0.852216, 0.206704
0.12, 0.853914, 0.132802
0.13, 0.854872, 0.058813
0.14, 0.855090, -0.015213
0.15, 0.854568, -0.089229
0.16, 0.853306, -0.163188
0.17, 0.851304, -0.237042
0.18, 0.848565, -0.310742
0.19, 0.845090, -0.384241
0.20, 0.840881, -0.457489
0.21, 0.835941, -0.530439
0.22, 0.830274, -0.603039
0.23, 0.823882, -0.675240
0.24, 0.816770, -0.746991
0.25, 0.808944, -0.818241
0.26, 0.800407, -0.888936
0.27, 0.791167, -0.959024
0.28, 0.781229, -1.028450
0.29, 0.770600, -1.097160
0.30, 0.759288, -1.165097
0.31, 0.747301, -1.232206
0.32, 0.734647, -1.298428
0.33, 0.721336, -1.363704
0.34, 0.707377, -1.427976
0.35, 0.692780, -1.491183
0.36, 0.677557, -1.553264
0.37, 0.661719, -1.614158
0.38, 0.645278, -1.673803
0.39, 0.628247, -1.732136
0.40, 0.610640, -1.789094
0.41, 0.592470, -1.844615
0.42, 0.573752, -1.898634
0.43, 0.554502, -1.951088
0.44, 0.534736, -2.001916
0.45, 0.514470, -2.051054
0.46, 0.493721, -2.098440
0.47, 0.472507, -2.144014
0.48, 0.450847, -2.187715
0.49, 0.428759, -2.229484
0.50, 0.406264, -2.269265
0.51, 0.383381, -2.307000
0.52, 0.360131, -2.342637
0.53, 0.336535, -2.376124
0.54, 0.312615, -2.407410
0.55, 0.288394, -2.436449
0.56, 0.263894, -2.463198
0.57, 0.239138, -2.487613
0.58, 0.214150, -2.509658
0.59, 0.188953, -2.529298
0.60, 0.163572, -2.546501
0.61, 0.138031, -2.561239
0.62, 0.112355, -2.573489
0.63, 0.086570, -2.583231
0.64, 0.060699, -2.590448
0.65, 0.034769, -2.595130
0.66, 0.008805, -2.597267
0.67, -0.017168, -2.596857
0.68, -0.043124, -2.593900
0.69, -0.069037, -2.588401
0.70, -0.094883, -2.580369
0.71, -0.120636, -2.569818
0.72, -0.146271, -2.556764
0.73, -0.171763, -2.541229
0.74, -0.197088, -2.523239
0.75, -0.222220, -2.502821
0.76, -0.247136, -2.480008
0.77, -0.271812, -2.454837
0.78, -0.296225, -2.427347
0.79, -0.320352, -2.397579
0.80, -0.344169, -2.365579
0.81, -0.367656, -2.331394
0.82, -0.390790, -2.295076
0.83, -0.413550, -2.256676
0.84, -0.435917, -2.216249
0.85, -0.457869, -2.173851
0.86, -0.479387, -2.129541
0.87, -0.500453, -2.083377
0.88, -0.521049, -2.035420
0.89, -0.541156, -1.985731
0.90, -0.560758, -1.934373
0.91, -0.579838, -1.881407
0.92, -0.598381, -1.826898
0.93, -0.616371, -1.770908
0.94, -0.633794, -1.713500
0.95, -0.650637, -1.654738
0.96, -0.666885, -1.594684
0.97, -0.682526, -1.533401
0.98, -0.697549, -1.470950
0.99, -0.711942, -1.407394
1.00, -0.725693, -1.342792
1.01, -0.738794, -1.277205
1.02, -0.751234, -1.210691
1.03, -0.763005, -1.143309
1.04, -0.774098, -1.075117
1.05, -0.784505, -1.006170
1.06, -0.794219, -0.936525
1.07, -0.803233, -0.866236
1.08, -0.811542, -0.795356
1.09, -0.819139, -0.723940
1.10, -0.826019, -0.652038
1.11, -0.832178, -0.579703
1.12, -0.837612, -0.506985
1.13, -0.842316, -0.433934
1.14, -0.846289, -0.360599
1.15, -0.849528, -0.287030
1.16, -0.852029, -0.213275
1.17, -0.853793, -0.139382
1.18, -0.854817, -0.065400
1.19, -0.855101, 0.008625
1.20, -0.854644, 0.082644
1.21, -0.853448, 0.156610
1.22, -0.851512, 0.230475
1.23, -0.848839, 0.304191
1.24, -0.845429, 0.377709
1.25, -0.841285, 0.450982
1.26, -0.836410, 0.523960
1.27, -0.830807, 0.596594
1.28, -0.824480, 0.668832
1.29, -0.817432, 0.740626
1.30, -0.809669, 0.811922
1.31, -0.801196, 0.882668
1.32, -0.792018, 0.952812
1.33, -0.782142, 1.022300
1.34, -0.771574, 1.091076
1.35, -0.760323, 1.159084
1.36, -0.748395, 1.226269
1.37, -0.735800, 1.292572
1.38, -0.722547, 1.357935
1.39, -0.708645, 1.422299
1.40, -0.694104, 1.485603
1.41, -0.678936, 1.547787
1.42, -0.663153, 1.608789
1.43, -0.646765, 1.668548
1.44, -0.629786, 1.727000
1.45, -0.612229, 1.784083
1.46, -0.594109, 1.839734
1.47, -0.575440, 1.893889
1.48, -0.556237, 1.946485
1.49, -0.536515, 1.997460
1.50, -0.516293, 2.046751
1.51, -0.495586, 2.094296
1.52, -0.474413, 2.140033
1.53, -0.452792, 2.183903
1.54, -0.430741, 2.225847
1.55, -0.408281, 2.265807
1.56, -0.385432, 2.303726
1.57, -0.362214, 2.339552
1.58, -0.338648, 2.373232
1.59, -0.314757, 2.404716
1.60, -0.290561, 2.433957
1.61, -0.266085, 2.460911
1.62, -0.241351, 2.485536
1.63, -0.216382, 2.507794
1.64, -0.191203, 2.527649
1.65, -0.165837, 2.545069
1.66, -0.140310, 2.560028
1.67, -0.114645, 2.572501
1.68, -0.088868, 2.582466
1.69, -0.063004, 2.589909
1.70, -0.037078, 2.594816
1.71, -0.011116, 2.597180
1.72, 0.014857, 2.596996
1.73, 0.040815, 2.594266
1.74, 0.066733, 2.588993
1.75, 0.092587, 2.581186
1.76, 0.118349, 2.570858
1.77, 0.143995, 2.558027
1.78, 0.169501, 2.542712
1.79, 0.194841, 2.524938
1.80, 0.219992, 2.504735
1.81, 0.244928, 2.482135
1.82, 0.269627, 2.457172
1.83, 0.294064, 2.429886
1.84, 0.318217, 2.400319
1.85, 0.342063, 2.368516
1.86, 0.365580, 2.334524
1.87, 0.388746, 2.298393
1.88, 0.411541, 2.260176
1.89, 0.433943, 2.219927
1.90, 0.455933, 2.177703
1.91, 0.477490, 2.133560
1.92, 0.498598, 2.087558
1.93, 0.519236, 2.039759
1.94, 0.539387, 1.990221
1.95, 0.559034, 1.939009
1.96, 0.578162, 1.886184
1.97, 0.596753, 1.831810
1.98, 0.614793, 1.775949
1.99, 0.632267, 1.718665
2.00, 0.649162, 1.660020
2.01, 0.665463, 1.600079
2.02, 0.681159, 1.538903
2.03, 0.696237, 1.476553
2.04, 0.710687, 1.413093
2.05, 0.724496, 1.348582
2.06, 0.737655, 1.283080
2.07, 0.750154, 1.216646
2.08, 0.761985, 1.149339
2.09, 0.773138, 1.081217
2.10, 0.783607, 1.012335
2.11, 0.793383, 0.942750
2.12, 0.802460, 0.872515
2.13, 0.810831, 0.801686
2.14, 0.818491, 0.730315
2.15, 0.825436, 0.658455
2.16, 0.831659, 0.586156
2.17, 0.837158, 0.513470
2.18, 0.841927, 0.440447
2.19, 0.845966, 0.367135
2.20, 0.849269, 0.293585
2.21, 0.851837, 0.219845
2.22, 0.853666, 0.145963
2.23, 0.854756, 0.071986
2.24, 0.855105, -0.002037
2.25, 0.854715, -0.076058
2.26, 0.853584, -0.150031
2.27, 0.851714, -0.223907
2.28, 0.849107, -0.297638
2.29, 0.845762, -0.371176
2.30, 0.841684, -0.444473
2.31, 0.836874, -0.517479
2.32, 0.831335, -0.590145
2.33, 0.825072, -0.662421
2.34, 0.818088, -0.734256
2.35, 0.810389, -0.805599
2.36, 0.801978, -0.876396
2.37, 0.792863, -0.946596
2.38, 0.783049, -1.016144
2.39, 0.772542, -1.084986
2.40, 0.761351, -1.153065
2.41, 0.749484, -1.220325
2.42, 0.736948, -1.286709
2.43, 0.723753, -1.352158
2.44, 0.709908, -1.416613
2.45, 0.695424, -1.480014
2.46, 0.680311, -1.542300
2.47, 0.664582, -1.603410
2.48, 0.648247, -1.663282
2.49, 0.631321, -1.721853
2.50, 0.613815, -1.779060
2.51, 0.595744, -1.834841
2.52, 0.577123, -1.889132
2.53, 0.557967, -1.941870
2.54, 0.538291, -1.992991
2.55, 0.518112, -2.042435
2.56, 0.497448, -2.090137
2.57, 0.476316, -2.136038
2.58, 0.454734, -2.180077
2.59, 0.432721, -2.222194
2.60, 0.410296, -2.262333
2.61, 0.387481, -2.300436
2.62, 0.364294, -2.336450
2.63, 0.340759, -2.370323
2.64, 0.316895, -2.402005
2.65, 0.292726, -2.431447
2.66, 0.268274, -2.458606
2.67, 0.243562, -2.483440
2.68, 0.218613, -2.505910
2.69, 0.193452, -2.525980
2.70, 0.168102, -2.543619
2.71, 0.142587, -2.558797
2.72, 0.116934, -2.571492
2.73, 0.091166, -2.581681
2.74, 0.065309, -2.589349
2.75, 0.039387, -2.594482
2.76, 0.013428, -2.597073
2.77, -0.012546, -2.597116
2.78, -0.038506, -2.594612
2.79, -0.064429, -2.589565
2.80, -0.090289, -2.581983
2.81, -0.116061, -2.571879
2.82, -0.141718, -2.559269
2.83, -0.167238, -2.544175
2.84, -0.192594, -2.526619
2.85, -0.217762, -2.506631
2.86, -0.242718, -2.484242
2.87, -0.267439, -2.459488
2.88, -0.291900, -2.432407
2.89, -0.316079, -2.403042
2.90, -0.339954, -2.371435
2.91, -0.363501, -2.337636
2.92, -0.386699, -2.301694
2.93, -0.409528, -2.263660
2.94, -0.431966, -2.223590
2.95, -0.453993, -2.181539
2.96, -0.475590, -2.137564
2.97, -0.496738, -2.091726
2.98, -0.517419, -2.044084
2.99, -0.537614, -1.994698
3.00, -0.557307, -1.943633
3.01, -0.576481, -1.890949
3.02, -0.595121, -1.836710
3.03, -0.613210, -1.780978
3.04, -0.630735, -1.723818
3.05, -0.647682, -1.665293
3.06, -0.664037, -1.605464
3.07, -0.679787, -1.544395
3.08, -0.694921, -1.482148
3.09, -0.709427, -1.418784
3.10, -0.723293, -1.354364
3.11, -0.736510, -1.288947
3.12, -0.749069, -1.222594
3.13, -0.760959, -1.155363
3.14, -0.772173, -1.087311
3.15, -0.782703, -1.018494
3.16, -0.792541, -0.948969
3.17, -0.801680, -0.878790
3.18, -0.810115, -0.808012
3.19, -0.817839, -0.736687
3.20, -0.824847, -0.664868
3.21, -0.831135, -0.592607
3.22, -0.836698, -0.519953
3.23, -0.841533, -0.446957
3.24, -0.845636, -0.373670
3.25, -0.849005, -0.300139
3.26, -0.851638, -0.226414
3.27, -0.853533, -0.152542
3.28, -0.854689, -0.078572
3.29, -0.855104, -0.004551
3.30, -0.854780, 0.069473
3.31, -0.853715, 0.143451
3.32, -0.851911, 0.217338
3.33, -0.849369, 0.291084
3.34, -0.846090, 0.364641
3.35, -0.842077, 0.437961
3.36, -0.837331, 0.510995
3.37, -0.831858, 0.583694
3.38, -0.825659, 0.656006
3.39, -0.818739, 0.727883
3.40, -0.811103, 0.799271
3.41, -0.802755, 0.870119
3.42, -0.793702, 0.940375
3.43, -0.783950, 1.009983
3.44, -0.773505, 1.078890
3.45, -0.762375, 1.147039
3.46, -0.750567, 1.214374
3.47, -0.738090, 1.280839
3.48, -0.724953, 1.346373
3.49, -0.711166, 1.410919
3.50, -0.696739, 1.474416
3.51, -0.681681, 1.536804
3.52, -0.666006, 1.598021
3.53, -0.649725, 1.658006
3.54, -0.632851, 1.716695
3.55, -0.615396, 1.774026
3.56, -0.597375, 1.829937
3.57, -0.578802, 1.884363
3.58, -0.559693, 1.937241
3.59, -0.540063, 1.988509
3.60, -0.519928, 2.038104
3.61, -0.499306, 2.085964
3.62, -0.478215, 2.132028
3.63, -0.456672, 2.176235
3.64, -0.434696, 2.218525
3.65, -0.412308, 2.258842
3.66, -0.389526, 2.297129
3.67, -0.366372, 2.333331
3.68, -0.342867, 2.367397
3.69, -0.319032, 2.399275
3.70, -0.294889, 2.428919
3.71, -0.270461, 2.456283
3.72, -0.245771, 2.481325
3.73, -0.220842, 2.504007
3.74, -0.195699, 2.524292
3.75, -0.170365, 2.542148
3.76, -0.144864, 2.557547
3.77, -0.119222, 2.570464
3.78, -0.093463, 2.580877
3.79, -0.067613, 2.588769
3.80, -0.041696, 2.594129
3.81, -0.015739, 2.596945
3.82, 0.010234, 2.597215
3.83, 0.036197, 2.594938
3.84, 0.062125, 2.590117
3.85, 0.087991, 2.582760
3.86, 0.113771, 2.572880
3.87, 0.139440, 2.560493
3.88, 0.164973, 2.545618
3.89, 0.190344, 2.528280
3.90, 0.215530, 2.508507
3.91, 0.240507, 2.486331
3.92, 0.265249, 2.461786
3.93, 0.289735, 2.434910
3.94, 0.313940, 2.405746
3.95, 0.337842, 2.374338
3.96, 0.361419, 2.340732
3.97, 0.384649, 2.304978
3.98, 0.407512, 2.267128
3.99, 0.429985, 2.227237
4.00, 0.452050, 2.185360
4.01, 0.473686, 2.141554
4.02, 0.494875, 2.095879
4.03, 0.515598, 2.048395
4.04, 0.535837, 1.999162
4.05, 0.555575, 1.948244
4.06, 0.574796, 1.895701
4.07, 0.593484, 1.841598
4.08, 0.611623, 1.785997
4.09, 0.629199, 1.728961
4.10, 0.646198, 1.670555
4.11, 0.662606, 1.610839
4.12, 0.678410, 1.549878
4.13, 0.693600, 1.487733
4.14, 0.708161, 1.424466
4.15, 0.722085, 1.360138
4.16, 0.735361, 1.294808
4.17, 0.747978, 1.228536
4.18, 0.759929, 1.161380
4.19, 0.771203, 1.093398
4.20, 0.781794, 1.024648
4.21, 0.791694, 0.955183
4.22, 0.800895, 0.885061
4.23, 0.809393, 0.814334
4.24, 0.817180, 0.743055
4.25, 0.824252, 0.671278
4.26, 0.830604, 0.599054
4.27, 0.836232, 0.526433
4.28, 0.841132, 0.453466
4.29, 0.845300, 0.380202
4.30, 0.848735, 0.306691
4.31, 0.851434, 0.232981
4.32, 0.853394, 0.159120
4.33, 0.854616, 0.085157
4.34, 0.855097, 0.011139
4.35, 0.854838, -0.062886
4.36, 0.853840, -0.136871
4.37, 0.852101, -0.210768
4.38, 0.849625, -0.284528
4.39, 0.846411, -0.358104
4.40, 0.842463, -0.431447
4.41, 0.837783, -0.504509
4.42, 0.832374, -0.577239
4.43, 0.826240, -0.649588
4.44, 0.819384, -0.721505
4.45, 0.811811, -0.792939
4.46, 0.803527, -0.863838
4.47, 0.794537, -0.934148
4.48, 0.784846, -1.003816
4.49, 0.774463, -1.072787
4.50, 0.763393, -1.141006
4.51, 0.751645, -1.208417
4.52, 0.739227, -1.274961
4.53, 0.726149, -1.340580
4.54, 0.712419, -1.405217
4.55, 0.698048, -1.468810
4.56, 0.683047, -1.531299
4.57, 0.667426, -1.592623
4.58, 0.651198, -1.652719
4.59, 0.634376, -1.711526
4.60, 0.616972, -1.768981
4.61, 0.599001, -1.825020
4.62, 0.580477, -1.879581
4.63, 0.561415, -1.932600
4.64, 0.541830, -1.984014
4.65, 0.521740, -2.033760
4.66, 0.501161, -2.081777
4.67, 0.480110, -2.128003
4.68, 0.458607, -2.172377
4.69, 0.436669, -2.214841
4.70, 0.414317, -2.255336
4.71, 0.391569, -2.293806
4.72, 0.368447, -2.330196
4.73, 0.344972, -2.364453
4.74, 0.321166, -2.396528
4.75, 0.297049, -2.426373
4.76, 0.272646, -2.453942
4.77, 0.247978, -2.479192
4.78, 0.223070, -2.502085
4.79, 0.197944, -2.522585
4.80, 0.172626, -2.540658
4.81, 0.147139, -2.556277
4.82, 0.121509, -2.569415
4.83, 0.095759, -2.580052
4.84, 0.069916, -2.588169
4.85, 0.044004, -2.593755
4.86, 0.018050, -2.596798
4.87, -0.007923, -2.597295
4.88, -0.033888, -2.595244
4.89, -0.059819, -2.590649
4.90, -0.085692, -2.583518
4.91, -0.111481, -2.573861
4.92, -0.137161, -2.561696
4.93, -0.162707, -2.547042
4.94, -0.188094, -2.529922
4.95, -0.213297, -2.510365
4.96, -0.238293, -2.488401
4.97, -0.263057, -2.464065
4.98, -0.287567, -2.437396
4.99, -0.311798, -2.408433
5.00, -0.335728, -2.377222
5.01, -0.359335, -2.343810
5.02, -0.382597, -2.308245
5.03, -0.405493, -2.270580
5.04, -0.428002, -2.230868
5.05, -0.450103, -2.189165
5.06, -0.471778, -2.145529
5.07, -0.493008, -2.100018
5.08, -0.513773, -2.052692
5.09, -0.534056, -2.003613
5.10, -0.553839, -1.952842
5.11, -0.573107, -1.900441
5.12, -0.591843, -1.846474
5.13, -0.610032, -1.791004
5.14, -0.627658, -1.734093
5.15, -0.644709, -1.675806
5.16, -0.661170, -1.616205
5.17, -0.677029, -1.555352
5.18, -0.692273, -1.493310
5.19, -0.706891, -1.430140
5.20, -0.720872, -1.365904
5.21, -0.734206, -1.300660
5.22, -0.746882, -1.234470
5.23, -0.758892, -1.167390
5.24, -0.770227, -1.099480
5.25, -0.780879, -1.030795
5.26, -0.790841, -0.961393
5.27, -0.800105, -0.891326
5.28, -0.808665, -0.820651
5.29, -0.816516, -0.749419
5.30, -0.823652, -0.677685
5.31, -0.830068, -0.605498
5.32, -0.835761, -0.532910
5.33, -0.840725, -0.459972
5.34, -0.844959, -0.386733
5.35, -0.848459, -0.313242
5.36, -0.851223, -0.239547
5.37, -0.853250, -0.165698
5.38, -0.854537, -0.091742
5.39, -0.855084, -0.017727
5.40, -0.854891, 0.056300
5.41, -0.853958, 0.130290
5.42, -0.852286, 0.204196
5.43, -0.849875, 0.277971
5.44, -0.846727, 0.351565
5.45, -0.842844, 0.424931
5.46, -0.838229, 0.498020
5.47, -0.832885, 0.570782
5.48, -0.826815, 0.643167
5.49, -0.820023, 0.715124
5.50, -0.812514, 0.786603
5.51, -0.804293, 0.857552
5.52, -0.795365, 0.927916
5.53, -0.785737, 0.997644
5.54, -0.775414, 1.066679
5.55, -0.764406, 1.134968
5.56, -0.752718, 1.202452
5.57, -0.740359, 1.269076
5.58, -0.727339, 1.334780
5.59, -0.713667, 1.399506
5.60, -0.699353, 1.463194
5.61, -0.684407, 1.525784
5.62, -0.668841, 1.587214
5.63, -0.652667, 1.647423
5.64, -0.635897, 1.706347
5.65, -0.618544, 1.763925
5.66, -0.600623, 1.820092
5.67, -0.582147, 1.874787
5.68, -0.563132, 1.927946
5.69, -0.543594, 1.979505
5.70, -0.523548, 2.029403
5.71, -0.503011, 2.077576
5.72, -0.482002, 2.123964
5.73, -0.460538, 2.168505
5.74, -0.438638, 2.211141
5.75, -0.416322, 2.251814
5.76, -0.393609, 2.290466
5.77, -0.370520, 2.327043
5.78, -0.347075, 2.361493
5.79, -0.323297, 2.393764
5.80, -0.299207, 2.423809
5.81, -0.274828, 2.451582
5.82, -0.250183, 2.477040
5.83, -0.225295, 2.500144
5.84, -0.200188, 2.520858
5.85, -0.174886, 2.539149
5.86, -0.149414, 2.554987
5.87, -0.123795, 2.568347
5.88, -0.098055, 2.579207
5.89, -0.072219, 2.587550
5.90, -0.046312, 2.593360
5.91, -0.020360, 2.596630
5.92, 0.005612, 2.597354
5.93, 0.031578, 2.595530
5.94, 0.057514, 2.591161
5.95, 0.083393, 2.584255
5.96, 0.109190, 2.574823
5.97, 0.134881, 2.562880
5.98, 0.160440, 2.548446
5.99, 0.185842, 2.531545
6.00, 0.211062, 2.512203
6.01, 0.236078, 2.490452
6.02, 0.260864, 2.466326
6.03, 0.285396, 2.439862
6.04, 0.309653, 2.411102
6.05, 0.333611, 2.380090
6.06, 0.357248, 2.346871
6.07, 0.380541, 2.311496
6.08, 0.403471, 2.274016
6.09, 0.426015, 2.234484
6.10, 0.448154, 2.192956
6.11, 0.469867, 2.149489
6.12, 0.491137, 2.104142
6.13, 0.511944, 2.056976
6.14, 0.532271, 2.008050
6.15, 0.552100, 1.957427
6.16, 0.571414, 1.905169
6.17, 0.590198, 1.851338
6.18, 0.608436, 1.795999
6.19, 0.626113, 1.739215
6.20, 0.643215, 1.681047
6.21, 0.659729, 1.621560
6.22, 0.675642, 1.560817
6.23, 0.690942, 1.498878
6.24, 0.705616, 1.435806
6.25, 0.719654, 1.371662
6.26, 0.733046, 1.306506
6.27, 0.745781, 1.240397
6.28, 0.757851, 1.173394
6.29, 0.769246, 1.105556
6.30, 0.779959, 1.036938
6.31, 0.789983, 0.967596
6.32, 0.799309, 0.897587
6.33, 0.807932, 0.826964
6.34, 0.815846, 0.755779
6.35, 0.823046, 0.684087
6.36, 0.829527, 0.611939
6.37, 0.835284, 0.539385
6.38, 0.840313, 0.466476
6.39, 0.844612, 0.393261
6.40, 0.848178, 0.319791
6.41, 0.851007, 0.246112
6.42, 0.853099, 0.172275
6.43, 0.854452, 0.098326
6.44, 0.855066, 0.024315
6.45, 0.854939, -0.049713
6.46, 0.854071, -0.123708
6.47, 0.852465, -0.197624
6.48, 0.850119, -0.271412
6.49, 0.847037, -0.345025
6.50, 0.843220, -0.418413
6.51, 0.838670, -0.491528
6.52, 0.833390, -0.564321
6.53, 0.827385, -0.636742
6.54, 0.820657, -0.708739
6.55, 0.813211, -0.780263
6.56, 0.805053, -0.851261
6.57, 0.796188, -0.921680
6.58, 0.786622, -0.991466
6.59, 0.776361, -1.060565
6.60, 0.765413, -1.128922
6.61, 0.753785, -1.196481
6.62, 0.741486, -1.263183
6.63, 0.728525, -1.328972
6.64, 0.714910, -1.393787
6.65, 0.700652, -1.457570
6.66, 0.685762, -1.520260
6.67, 0.670251, -1.581796
6.68, 0.654130, -1.642116
6.69, 0.637413, -1.701157
6.70, 0.620112, -1.758857
6.71, 0.602240, -1.815153
6.72, 0.583814, -1.869981
6.73, 0.564846, -1.923279
6.74, 0.545353, -1.974983
6.75, 0.525352, -2.025031
6.76, 0.504858, -2.073360
6.77, 0.483890, -2.119909
6.78, 0.462466, -2.164618
6.79, 0.440604, -2.207426
6.80, 0.418324, -2.248275
6.81, 0.395646, -2.287109
6.82, 0.372589, -2.323874
6.83, 0.349175, -2.358514
6.84, 0.325426, -2.390982
6.85, 0.301363, -2.421226
6.86, 0.277009, -2.449203
6.87, 0.252387, -2.474869
6.88, 0.227519, -2.498185
6.89, 0.202431, -2.519113
6.90, 0.177145, -2.537620
6.91, 0.151687, -2.553678
6.92, 0.126080, -2.567259
6.93, 0.100350, -2.578343
6.94, 0.074522, -2.586910
6.95, 0.048620, -2.592946
6.96, 0.022671, -2.596443
6.97, -0.003300, -2.597393
6.98, -0.029268, -2.595795
6.99, -0.055208, -2.591653
7.00, -0.081093, -2.584972
7.01, -0.106899, -2.575764
7.02, -0.132600, -2.564044
7.03, -0.158171, -2.549831
7.04, -0.183588, -2.533148
7.05, -0.208826, -2.514023
7.06, -0.233861, -2.492485
7.07, -0.258668, -2.468568
7.08, -0.283224, -2.442311
7.09, -0.307506, -2.413754
7.10, -0.331492, -2.382940
7.11, -0.355158, -2.349916
7.12, -0.378483, -2.314730
7.13, -0.401445, -2.277435
7.14, -0.424025, -2.238083
7.15, -0.446200, -2.196731
7.16, -0.467953, -2.153434
7.17, -0.489263, -2.108253
7.18, -0.510112, -2.061245
7.19, -0.530482, -2.012473
7.20, -0.550356, -1.961999
7.21, -0.569716, -1.909884
7.22, -0.588548, -1.856191
7.23, -0.606835, -1.800984
7.24, -0.624563, -1.744325
7.25, -0.641717, -1.686278
7.26, -0.658284, -1.626906
7.27, -0.674251, -1.566272
7.28, -0.689605, -1.504437
7.29, -0.704336, -1.441463
7.30, -0.718431, -1.377412
7.31, -0.731881, -1.312343
7.32, -0.744675, -1.246317
7.33, -0.756804, -1.179392
7.34, -0.768260, -1.111625
7.35, -0.779034, -1.043074
7.36, -0.789119, -0.973795
7.37, -0.798508, -0.903843
7.38, -0.807194, -0.833272
7.39, -0.815171, -0.762135
7.40, -0.822435, -0.690486
7.41, -0.828979, -0.618376
7.42, -0.834801, -0.545856
7.43, -0.839895, -0.472977
7.44, -0.844259, -0.399788
7.45, -0.847890, -0.326338
7.46, -0.850785, -0.252676
7.47, -0.852943, -0.178851
7.48, -0.854362, -0.104910
7.49, -0.855041, -0.030902
7.50, -0.854980, 0.043126
7.51, -0.854179, 0.117126
7.52, -0.852638, 0.191051
7.53, -0.850358, 0.264852
7.54, -0.847341, 0.338482
7.55, -0.843589, 0.411893
7.56, -0.839104, 0.485034
7.57, -0.833889, 0.557858
7.58, -0.827948, 0.630313
7.59, -0.821285, 0.702351
7.60, -0.813903, 0.773919
7.61, -0.805808, 0.844965
7.62, -0.797005, 0.915438
7.63, -0.787501, 0.985283
7.64, -0.777302, 1.054445
7.65, -0.766415, 1.122871
