TIME,ANGLE,ANGULAR_VELOCITY
0.00,2.879793,3.000000
0.01,2.909793,2.974610
0.02,2.939539,2.952073
0.03,2.969060,2.932387
0.04,2.998384,2.915545
0.05,3.027539,2.901544
0.06,3.056555,2.890380
0.07,3.085459,2.882048
0.08,3.114279,2.876544
0.09,3.143045,2.873865
0.10,3.171783,2.874007
0.11,3.200523,2.876968
0.12,3.229293,2.882746
0.13,3.258120,2.891338
0.14,3.287034,2.902744
0.15,3.316061,2.916962
0.16,3.345231,2.933990
0.17,3.374571,2.953829
0.18,3.404109,2.976478
0.19,3.433874,3.001936
0.20,3.463893,3.030203
0.21,3.494195,3.061276
0.22,3.524808,3.095154
0.23,3.555760,3.131834
0.24,3.587078,3.171312
0.25,3.618791,3.213583
0.26,3.650927,3.258639
0.27,3.683513,3.306473
0.28,3.716578,3.357071
0.29,3.750149,3.410420
0.30,3.784253,3.466502
0.31,3.818918,3.525296
0.32,3.854171,3.586776
0.33,3.890039,3.650913
0.34,3.926548,3.717670
0.35,3.963724,3.787006
0.36,4.001594,3.858874
0.37,4.040183,3.933219
0.38,4.079515,4.009977
0.39,4.119615,4.089078
0.40,4.160506,4.170442
0.41,4.202210,4.253978
0.42,4.244750,4.339585
0.43,4.288146,4.427153
0.44,4.332418,4.516556
0.45,4.377583,4.607659
0.46,4.423660,4.700312
0.47,4.470663,4.794352
0.48,4.518606,4.889599
0.49,4.567502,4.985863
0.50,4.617361,5.082935
0.51,4.668190,5.180593
0.52,4.719996,5.278597
0.53,4.772782,5.376694
0.54,4.826549,5.474615
0.55,4.881295,5.572077
0.56,4.937016,5.668781
0.57,4.993704,5.764416
0.58,5.051348,5.858660
0.59,5.109935,5.951178
0.60,5.169446,6.041628
0.61,5.229863,6.129658
0.62,5.291159,6.214914
0.63,5.353308,6.297037
0.64,5.416279,6.375669
0.65,5.480035,6.450454
0.66,5.544540,6.521041
0.67,5.609750,6.587091
0.68,5.675621,6.648273
0.69,5.742104,6.704275
0.70,5.809147,6.754803
0.71,5.876695,6.799584
0.72,5.944691,6.838372
0.73,6.013074,6.870947
0.74,6.081784,6.897124
0.75,6.150755,6.916748
0.76,6.219923,6.929702
0.77,6.289220,6.935904
0.78,-6.219861,6.936496
0.79,-6.150496,6.930288
0.80,-6.081193,6.917309
0.81,-6.012020,6.897628
0.82,-5.943043,6.871352
0.83,-5.874330,6.838623
0.84,-5.805944,6.799623
0.85,-5.737947,6.754562
0.86,-5.670402,6.703686
0.87,-5.603365,6.647264
0.88,-5.536892,6.585593
0.89,-5.471036,6.518991
0.90,-5.405846,6.447793
0.91,-5.341369,6.372350
0.92,-5.277645,6.293024
0.93,-5.214715,6.210183
0.94,-5.152613,6.124202
0.95,-5.091371,6.035455
0.96,-5.031016,5.944316
0.97,-4.971573,5.851154
0.98,-4.913062,5.756330
0.99,-4.855498,5.660199
1.00,-4.798896,5.563102
1.01,-4.743265,5.465369
1.02,-4.688612,5.367315
1.03,-4.634939,5.269243
1.04,-4.582246,5.171437
1.05,-4.530532,5.074167
1.06,-4.479790,4.977684
1.07,-4.430013,4.882226
1.08,-4.381191,4.788011
1.09,-4.333311,4.695243
1.10,-4.286358,4.604107
1.11,-4.240317,4.514776
1.12,-4.195170,4.427405
1.13,-4.150896,4.342137
1.14,-4.107474,4.259099
1.15,-4.064883,4.178407
1.16,-4.023099,4.100163
1.17,-3.982097,4.024460
1.18,-3.941853,3.951377
1.19,-3.902339,3.880987
1.20,-3.863529,3.813351
1.21,-3.825396,3.748522
1.22,-3.787911,3.686548
1.23,-3.751045,3.627467
1.24,-3.714770,3.571313
1.25,-3.679057,3.518113
1.26,-3.643876,3.467890
1.27,-3.609197,3.420662
1.28,-3.574991,3.376443
1.29,-3.541226,3.335245
1.30,-3.507874,3.297076
1.31,-3.474903,3.261942
1.32,-3.442284,3.229847
1.33,-3.409985,3.200791
1.34,-3.377977,3.174777
1.35,-3.346229,3.151803
1.36,-3.314711,3.131868
1.37,-3.283393,3.114970
1.38,-3.252243,3.101106
1.39,-3.221232,3.090273
1.40,-3.190329,3.082469
1.41,-3.159504,3.077690
1.42,-3.128728,3.075933
1.43,-3.097968,3.077195
1.44,-3.067196,3.081473
1.45,-3.036382,3.088764
1.46,-3.005494,3.099067
1.47,-2.974503,3.112377
1.48,-2.943379,3.128692
1.49,-2.912093,3.148010
1.50,-2.880612,3.170327
1.51,-2.848909,3.195639
1.52,-2.816953,3.223943
1.53,-2.784713,3.255234
1.54,-2.752161,3.289505
1.55,-2.719266,3.326750
1.56,-2.685998,3.366960
1.57,-2.652329,3.410123
1.58,-2.618228,3.456228
1.59,-2.583665,3.505258
1.60,-2.548613,3.557195
1.61,-2.513041,3.612017
1.62,-2.476921,3.669697
1.63,-2.440224,3.730205
1.64,-2.402922,3.793506
1.65,-2.364987,3.859557
1.66,-2.326391,3.928312
1.67,-2.287108,3.999715
1.68,-2.247111,4.073705
1.69,-2.206374,4.150212
1.70,-2.164872,4.229156
1.71,-2.122580,4.310448
1.72,-2.079476,4.393989
1.73,-2.035536,4.479668
1.74,-1.990739,4.567364
1.75,-1.945065,4.656940
1.76,-1.898496,4.748249
1.77,-1.851013,4.841129
1.78,-1.802602,4.935402
1.79,-1.753248,5.030879
1.80,-1.702939,5.127350
1.81,-1.651666,5.224595
1.82,-1.599420,5.322374
1.83,-1.546196,5.420434
1.84,-1.491992,5.518505
1.85,-1.436807,5.616300
1.86,-1.380644,5.713521
1.87,-1.323509,5.809853
1.88,-1.265410,5.904968
1.89,-1.206360,5.998529
1.90,-1.146375,6.090187
1.91,-1.085473,6.179583
1.92,-1.023677,6.266355
1.93,-0.961014,6.350135
1.94,-0.897512,6.430555
1.95,-0.833207,6.507247
1.96,-0.768134,6.579850
1.97,-0.702336,6.648009
1.98,-0.635856,6.711382
1.99,-0.568742,6.769641
2.00,-0.501046,6.822474
2.01,-0.432821,6.869596
2.02,-0.364125,6.910743
2.03,-0.295017,6.945679
2.04,-0.225561,6.974202
2.05,-0.155819,6.996143
2.06,-0.085857,7.011367
2.07,-0.015744,7.019779
2.08,0.054454,7.021323
2.09,0.124667,7.015984
2.10,0.194827,7.003786
2.11,0.264865,6.984794
2.12,0.334713,6.959113
2.13,0.404304,6.926888
2.14,0.473573,6.888297
2.15,0.542456,6.843557
2.16,0.610892,6.792914
2.17,0.678821,6.736644
2.18,0.746187,6.675049
2.19,0.812938,6.608454
2.20,0.879022,6.537203
2.21,0.944394,6.461655
2.22,1.009011,6.382180
2.23,1.072833,6.299158
2.24,1.135824,6.212971
2.25,1.197954,6.124006
2.26,1.259194,6.032646
2.27,1.319520,5.939270
2.28,1.378913,5.844251
2.29,1.437356,5.747951
2.30,1.494835,5.650723
2.31,1.551342,5.552906
2.32,1.606871,5.454825
2.33,1.661420,5.356789
2.34,1.714988,5.259091
2.35,1.767578,5.162009
2.36,1.819199,5.065803
2.37,1.869857,4.970714
2.38,1.919564,4.876968
2.39,1.968333,4.784774
2.40,2.016181,4.694324
2.41,2.063124,4.605794
2.42,2.109182,4.519345
2.43,2.154376,4.435123
2.44,2.198727,4.353259
2.45,2.242260,4.273872
2.46,2.284998,4.197068
2.47,2.326969,4.122942
2.48,2.368198,4.051577
2.49,2.408714,3.983048
2.50,2.448545,3.917418
2.51,2.487719,3.854743
2.52,2.526266,3.795072
2.53,2.564217,3.738447
2.54,2.601601,3.684901
2.55,2.638450,3.634465
2.56,2.674795,3.587163
2.57,2.710667,3.543015
2.58,2.746097,3.502038
2.59,2.781117,3.464243
2.60,2.815760,3.429641
2.61,2.850056,3.398240
2.62,2.884039,3.370043
2.63,2.917739,3.345056
2.64,2.951190,3.323279
2.65,2.984422,3.304713
2.66,3.017469,3.289358
2.67,3.050363,3.277213
2.68,3.083135,3.268275
2.69,3.115818,3.262544
2.70,3.148443,3.260016
2.71,3.181043,3.260688
2.72,3.213650,3.264557
2.73,3.246296,3.271620
2.74,3.279012,3.281872
2.75,3.311831,3.295311
2.76,3.344784,3.311930
2.77,3.377903,3.331727
2.78,3.411221,3.354694
2.79,3.444767,3.380825
2.80,3.478576,3.410113
2.81,3.512677,3.442549
2.82,3.547102,3.478122
2.83,3.581884,3.516821
2.84,3.617052,3.558632
2.85,3.652638,3.603537
2.86,3.688673,3.651517
2.87,3.725189,3.702548
2.88,3.762214,3.756604
2.89,3.799780,3.813653
2.90,3.837917,3.873659
2.91,3.876653,3.936581
2.92,3.916019,4.002370
2.93,3.956043,4.070971
2.94,3.996752,4.142324
2.95,4.038176,4.216358
2.96,4.080339,4.292994
2.97,4.123269,4.372142
2.98,4.166991,4.453706
2.99,4.211528,4.537573
3.00,4.256903,4.623624
3.01,4.303140,4.711722
3.02,4.350257,4.801721
3.03,4.398274,4.893459
3.04,4.447209,4.986759
3.05,4.497076,5.081430
3.06,4.547891,5.177264
3.07,4.599663,5.274040
3.08,4.652404,5.371518
3.09,4.706119,5.469441
3.10,4.760813,5.567539
3.11,4.816489,5.665524
3.12,4.873144,5.763093
3.13,4.930775,5.859928
3.14,4.989374,5.955698
3.15,5.048931,6.050059
3.16,5.109432,6.142656
3.17,5.170858,6.233125
3.18,5.233189,6.321094
3.19,5.296400,6.406188
3.20,5.360462,6.488029
3.21,5.425343,6.566239
3.22,5.491005,6.640445
3.23,5.557409,6.710281
3.24,5.624512,6.775391
3.25,5.692266,6.835435
3.26,5.760620,6.890089
3.27,5.829521,6.939051
3.28,5.898912,6.982045
3.29,5.968732,7.018821
3.30,6.038921,7.049163
3.31,6.109412,7.072888
3.32,6.180141,7.089849
3.33,6.251040,7.099940
3.34,6.322039,7.103093
3.35,-6.251008,7.106904
3.36,-6.179939,7.103748
3.37,-6.108901,7.093637
3.38,-6.037965,7.076626
3.39,-5.967199,7.052811
3.40,-5.896671,7.022326
3.41,-5.826447,6.985346
3.42,-5.756594,6.942081
3.43,-5.687173,6.892777
3.44,-5.618245,6.837709
3.45,-5.549868,6.777180
3.46,-5.482097,6.711518
3.47,-5.414981,6.641071
3.48,-5.348571,6.566204
3.49,-5.282909,6.487296
3.50,-5.218036,6.404733
3.51,-5.153988,6.318909
3.52,-5.090799,6.230219
3.53,-5.028497,6.139060
3.54,-4.967106,6.045820
3.55,-4.906648,5.950886
3.56,-4.847139,5.854631
3.57,-4.788593,5.757420
3.58,-4.731019,5.659605
3.59,-4.674423,5.561522
3.60,-4.618808,5.463492
3.61,-4.564173,5.365822
3.62,-4.510514,5.268797
3.63,-4.457827,5.172689
3.64,-4.406100,5.077751
3.65,-4.355322,4.984217
3.66,-4.305480,4.892304
3.67,-4.256557,4.802214
3.68,-4.208535,4.714131
3.69,-4.161393,4.628222
3.70,-4.115111,4.544640
3.71,-4.069665,4.463524
3.72,-4.025030,4.384998
3.73,-3.981180,4.309175
3.74,-3.938088,4.236152
3.75,-3.895726,4.166019
3.76,-3.854066,4.098855
3.77,-3.813078,4.034726
3.78,-3.772730,3.973693
3.79,-3.732993,3.915808
3.80,-3.693835,3.861115
3.81,-3.655224,3.809652
3.82,-3.617128,3.761451
3.83,-3.579513,3.716539
3.84,-3.542348,3.674939
3.85,-3.505598,3.636669
3.86,-3.469232,3.601743
3.87,-3.433214,3.570174
3.88,-3.397513,3.541970
3.89,-3.362093,3.517137
3.90,-3.326921,3.495681
3.91,-3.291965,3.477604
3.92,-3.257189,3.462908
3.93,-3.222560,3.451593
3.94,-3.188044,3.443659
3.95,-3.153607,3.439104
3.96,-3.119216,3.437925
3.97,-3.084837,3.440120
3.98,-3.050435,3.445685
3.99,-3.015979,3.454615
4.00,-2.981432,3.466906
4.01,-2.946763,3.482550
4.02,-2.911938,3.501542
4.03,-2.876922,3.523874
4.04,-2.841684,3.549536
4.05,-2.806188,3.578518
4.06,-2.770403,3.610808
4.07,-2.734295,3.646391
4.08,-2.697831,3.685251
4.09,-2.660979,3.727370
4.10,-2.623705,3.772723
4.11,-2.585978,3.821287
4.12,-2.547765,3.873032
4.13,-2.509035,3.927923
4.14,-2.469755,3.985920
4.15,-2.429896,4.046980
4.16,-2.389426,4.111051
4.17,-2.348316,4.178075
4.18,-2.306535,4.247987
4.19,-2.264055,4.320712
4.20,-2.220848,4.396167
4.21,-2.176886,4.474260
4.22,-2.132144,4.554886
4.23,-2.086595,4.637932
4.24,-2.040216,4.723269
4.25,-1.992983,4.810758
4.26,-1.944875,4.900244
4.27,-1.895873,4.991560
4.28,-1.845957,5.084522
4.29,-1.795112,5.178931
4.30,-1.743323,5.274574
4.31,-1.690577,5.371217
4.32,-1.636865,5.468614
4.33,-1.582179,5.566500
4.34,-1.526514,5.664594
4.35,-1.469868,5.762598
4.36,-1.412242,5.860199
4.37,-1.353640,5.957068
4.38,-1.294069,6.052864
4.39,-1.233541,6.147232
4.40,-1.172068,6.239806
4.41,-1.109670,6.330210
4.42,-1.046368,6.418064
4.43,-0.982187,6.502980
4.44,-0.917158,6.584571
4.45,-0.851312,6.662451
4.46,-0.784687,6.736236
4.47,-0.717325,6.805554
4.48,-0.649269,6.870042
4.49,-0.580569,6.929354
4.50,-0.511276,6.983162
4.51,-0.441444,7.031161
4.52,-0.371132,7.073074
4.53,-0.300402,7.108652
4.54,-0.229315,7.137680
4.55,-0.157938,7.159979
4.56,-0.086338,7.175409
4.57,-0.014584,7.183868
4.58,0.057254,7.185299
4.59,0.129107,7.179685
4.60,0.200904,7.167055
4.61,0.272575,7.147478
4.62,0.344049,7.121069
4.63,0.415260,7.087979
4.64,0.486140,7.048403
4.65,0.556624,7.002569
4.66,0.626650,6.950741
4.67,0.696157,6.893211
4.68,0.765089,6.830302
4.69,0.833392,6.762358
4.70,0.901016,6.689743
4.71,0.967913,6.612837
4.72,1.034042,6.532031
4.73,1.099362,6.447727
4.74,1.163839,6.360328
4.75,1.227442,6.270240
4.76,1.290145,6.177866
4.77,1.351924,6.083604
4.78,1.412760,5.987844
4.79,1.472638,5.890967
4.80,1.531548,5.793339
4.81,1.589481,5.695315
4.82,1.646434,5.597232
4.83,1.702407,5.499412
4.84,1.757401,5.402161
4.85,1.811422,5.305764
4.86,1.864480,5.210490
4.87,1.916585,5.116590
4.88,1.967751,5.024297
4.89,2.017994,4.933825
4.90,2.067332,4.845372
4.91,2.115786,4.759118
4.92,2.163377,4.675230
4.93,2.210129,4.593856
4.94,2.256068,4.515131
4.95,2.301219,4.439177
4.96,2.345611,4.366103
4.97,2.389272,4.296006
4.98,2.432232,4.228971
4.99,2.474522,4.165074
5.00,2.516172,4.104380
