TIME,ANGLE,ANGULAR_VELOCITY
0.00,2.094395,3.000000
0.01,2.124395,2.915043
0.02,2.153546,2.831595
0.03,2.181861,2.749686
0.04,2.209358,2.669339
0.05,2.236052,2.590569
0.06,2.261957,2.513388
0.07,2.287091,2.437801
0.08,2.311469,2.363810
0.09,2.335107,2.291411
0.10,2.358022,2.220596
0.11,2.380227,2.151356
0.12,2.401741,2.083676
0.13,2.422578,2.017539
0.14,2.442753,1.952926
0.15,2.462282,1.889815
0.16,2.481181,1.828183
0.17,2.499462,1.768005
0.18,2.517143,1.709252
0.19,2.534235,1.651898
0.20,2.550754,1.595913
0.21,2.566713,1.541265
0.22,2.582126,1.487925
0.23,2.597005,1.435860
0.24,2.611364,1.385038
0.25,2.625214,1.335425
0.26,2.638568,1.286990
0.27,2.651438,1.239698
0.28,2.663835,1.193517
0.29,2.675770,1.148411
0.30,2.687254,1.104349
0.31,2.698298,1.061296
0.32,2.708911,1.019219
0.33,2.719103,0.978085
0.34,2.728884,0.937861
0.35,2.738263,0.898514
0.36,2.747248,0.860011
0.37,2.755848,0.822321
0.38,2.764071,0.785411
0.39,2.771925,0.749249
0.40,2.779418,0.713805
0.41,2.786556,0.679047
0.42,2.793346,0.644945
0.43,2.799796,0.611469
0.44,2.805910,0.578588
0.45,2.811696,0.546272
0.46,2.817159,0.514493
0.47,2.822304,0.483222
0.48,2.827136,0.452429
0.49,2.831660,0.422087
0.50,2.835881,0.392167
0.51,2.839803,0.362641
0.52,2.843429,0.333483
0.53,2.846764,0.304665
0.54,2.849811,0.276159
0.55,2.852572,0.247940
0.56,2.855052,0.219980
0.57,2.857251,0.192253
0.58,2.859174,0.164734
0.59,2.860821,0.137395
0.60,2.862195,0.110212
0.61,2.863297,0.083159
0.62,2.864129,0.056209
0.63,2.864691,0.029338
0.64,2.864984,0.002519
0.65,2.865010,-0.024271
0.66,2.864767,-0.051059
0.67,2.864256,-0.077870
0.68,2.863478,-0.104730
0.69,2.862430,-0.131662
0.70,2.861114,-0.158694
0.71,2.859527,-0.185850
0.72,2.857668,-0.213155
0.73,2.855537,-0.240635
0.74,2.853130,-0.268316
0.75,2.850447,-0.296223
0.76,2.847485,-0.324383
0.77,2.844241,-0.352821
0.78,2.840713,-0.381563
0.79,2.836897,-0.410636
0.80,2.832791,-0.440066
0.81,2.828390,-0.469880
0.82,2.823692,-0.500106
0.83,2.818690,-0.530769
0.84,2.813383,-0.561898
0.85,2.807764,-0.593521
0.86,2.801829,-0.625664
0.87,2.795572,-0.658358
0.88,2.788988,-0.691629
0.89,2.782072,-0.725507
0.90,2.774817,-0.760021
0.91,2.767217,-0.795201
0.92,2.759265,-0.831075
0.93,2.750954,-0.867674
0.94,2.742277,-0.905029
0.95,2.733227,-0.943169
0.96,2.723795,-0.982125
0.97,2.713974,-1.021929
0.98,2.703755,-1.062612
0.99,2.693129,-1.104204
1.00,2.682087,-1.146739
1.01,2.670619,-1.190247
1.02,2.658717,-1.234760
1.03,2.646369,-1.280310
1.04,2.633566,-1.326930
1.05,2.620297,-1.374651
1.06,2.606550,-1.423506
1.07,2.592315,-1.473525
1.08,2.577580,-1.524740
1.09,2.562333,-1.577182
1.10,2.546561,-1.630883
1.11,2.530252,-1.685871
1.12,2.513393,-1.742177
1.13,2.495971,-1.799829
1.14,2.477973,-1.858856
1.15,2.459385,-1.919283
1.16,2.440192,-1.981136
1.17,2.420380,-2.044438
1.18,2.399936,-2.109213
1.19,2.378844,-2.175481
1.20,2.357089,-2.243259
1.21,2.334656,-2.312564
1.22,2.311531,-2.383409
1.23,2.287697,-2.455805
1.24,2.263139,-2.529757
1.25,2.237841,-2.605270
1.26,2.211788,-2.682342
1.27,2.184965,-2.760970
1.28,2.157355,-2.841142
1.29,2.128944,-2.922845
1.30,2.099715,-3.006057
1.31,2.069655,-3.090752
1.32,2.038747,-3.176896
1.33,2.006978,-3.264450
1.34,1.974334,-3.353365
1.35,1.940800,-3.443585
1.36,1.906364,-3.535046
1.37,1.871014,-3.627675
1.38,1.834737,-3.721387
1.39,1.797523,-3.816090
1.40,1.759362,-3.911679
1.41,1.720246,-4.008040
1.42,1.680165,-4.105047
1.43,1.639115,-4.202561
1.44,1.597089,-4.300432
1.45,1.554085,-4.398498
1.46,1.510100,-4.496584
1.47,1.465134,-4.594503
1.48,1.419189,-4.692056
1.49,1.372268,-4.789031
1.50,1.324378,-4.885204
1.51,1.275526,-4.980341
1.52,1.225723,-5.074195
1.53,1.174981,-5.166512
1.54,1.123316,-5.257028
1.55,1.070745,-5.345469
1.56,1.017291,-5.431557
1.57,0.962975,-5.515010
1.58,0.907825,-5.595539
1.59,0.851870,-5.672858
1.60,0.795141,-5.746680
1.61,0.737674,-5.816720
1.62,0.679507,-5.882699
1.63,0.620680,-5.944346
1.64,0.561237,-6.001399
1.65,0.501223,-6.053612
1.66,0.440686,-6.100748
1.67,0.379679,-6.142594
1.68,0.318253,-6.178952
1.69,0.256463,-6.209648
1.70,0.194367,-6.234532
1.71,0.132022,-6.253480
1.72,0.069487,-6.266394
1.73,0.006823,-6.273205
1.74,-0.055909,-6.273874
1.75,-0.118648,-6.268392
1.76,-0.181332,-6.256780
1.77,-0.243900,-6.239089
1.78,-0.306290,-6.215399
1.79,-0.368444,-6.185820
1.80,-0.430303,-6.150487
1.81,-0.491808,-6.109565
1.82,-0.552903,-6.063241
1.83,-0.613536,-6.011722
1.84,-0.673653,-5.955240
1.85,-0.733205,-5.894041
1.86,-0.792146,-5.828387
1.87,-0.850429,-5.758553
1.88,-0.908015,-5.684825
1.89,-0.964863,-5.607494
1.90,-1.020938,-5.526859
1.91,-1.076207,-5.443219
1.92,-1.130639,-5.356875
1.93,-1.184208,-5.268125
1.94,-1.236889,-5.177265
1.95,-1.288662,-5.084583
1.96,-1.339507,-4.990362
1.97,-1.389411,-4.894874
1.98,-1.438360,-4.798383
1.99,-1.486344,-4.701143
2.00,-1.533355,-4.603392
2.01,-1.579389,-4.505361
2.02,-1.624443,-4.407265
2.03,-1.668515,-4.309306
2.04,-1.711608,-4.211674
2.05,-1.753725,-4.114545
2.06,-1.794871,-4.018081
2.07,-1.835051,-3.922434
2.08,-1.874276,-3.827739
2.09,-1.912553,-3.734122
2.10,-1.949894,-3.641696
2.11,-1.986311,-3.550561
2.12,-2.021817,-3.460808
2.13,-2.056425,-3.372518
2.14,-2.090150,-3.285760
2.15,-2.123008,-3.200596
2.16,-2.155014,-3.117076
2.17,-2.186184,-3.035247
2.18,-2.216537,-2.955143
2.19,-2.246088,-2.876795
2.20,-2.274856,-2.800226
2.21,-2.302859,-2.725452
2.22,-2.330113,-2.652486
2.23,-2.356638,-2.581333
2.24,-2.382451,-2.511997
2.25,-2.407571,-2.444475
2.26,-2.432016,-2.378761
2.27,-2.455804,-2.314848
2.28,-2.478952,-2.252723
2.29,-2.501479,-2.192371
2.30,-2.523403,-2.133778
2.31,-2.544741,-2.076923
2.32,-2.565510,-2.021786
2.33,-2.585728,-1.968347
2.34,-2.605411,-1.916582
2.35,-2.624577,-1.866467
2.36,-2.643242,-1.817977
2.37,-2.661422,-1.771088
2.38,-2.679132,-1.725772
2.39,-2.696390,-1.682005
2.40,-2.713210,-1.639759
2.41,-2.729608,-1.599008
2.42,-2.745598,-1.559726
2.43,-2.761195,-1.521886
2.44,-2.776414,-1.485463
2.45,-2.791269,-1.450430
2.46,-2.805773,-1.416762
2.47,-2.819941,-1.384434
2.48,-2.833785,-1.353421
2.49,-2.847319,-1.323699
2.50,-2.860556,-1.295246
2.51,-2.873509,-1.268038
2.52,-2.886189,-1.242053
2.53,-2.898609,-1.217269
2.54,-2.910782,-1.193666
2.55,-2.922719,-1.171224
2.56,-2.934431,-1.149924
2.57,-2.945930,-1.129746
2.58,-2.957228,-1.110674
2.59,-2.968335,-1.092690
2.60,-2.979261,-1.075778
2.61,-2.990019,-1.059924
2.62,-3.000618,-1.045111
2.63,-3.011070,-1.031327
2.64,-3.021383,-1.018559
2.65,-3.031568,-1.006795
2.66,-3.041636,-0.996023
2.67,-3.051597,-0.986234
2.68,-3.061459,-0.977417
2.69,-3.071233,-0.969565
2.70,-3.080929,-0.962668
2.71,-3.090555,-0.956721
2.72,-3.100123,-0.951716
2.73,-3.109640,-0.947649
2.74,-3.119116,-0.944515
2.75,-3.128561,-0.942310
2.76,-3.137985,-0.941032
2.77,-3.147395,-0.940678
2.78,-3.156802,-0.941247
2.79,-3.166214,-0.942739
2.80,-3.175642,-0.945154
2.81,-3.185093,-0.948494
2.82,-3.194578,-0.952760
2.83,-3.204106,-0.957955
2.84,-3.213685,-0.964084
2.85,-3.223326,-0.971150
2.86,-3.233037,-0.979159
2.87,-3.242829,-0.988117
2.88,-3.252710,-0.998032
2.89,-3.262691,-1.008910
2.90,-3.272780,-1.020760
2.91,-3.282987,-1.033593
2.92,-3.293323,-1.047418
2.93,-3.303797,-1.062245
2.94,-3.314420,-1.078088
2.95,-3.325201,-1.094958
2.96,-3.336150,-1.112869
2.97,-3.347279,-1.131835
2.98,-3.358597,-1.151871
2.99,-3.370116,-1.172992
3.00,-3.381846,-1.195216
3.01,-3.393798,-1.218559
3.02,-3.405984,-1.243038
3.03,-3.418414,-1.268674
3.04,-3.431101,-1.295485
3.05,-3.444056,-1.323490
3.06,-3.457291,-1.352712
3.07,-3.470818,-1.383170
3.08,-3.484649,-1.414886
3.09,-3.498798,-1.447884
3.10,-3.513277,-1.482185
3.11,-3.528099,-1.517814
3.12,-3.543277,-1.554793
3.13,-3.558825,-1.593147
3.14,-3.574756,-1.632901
3.15,-3.591085,-1.674078
3.16,-3.607826,-1.716703
3.17,-3.624993,-1.760801
3.18,-3.642601,-1.806397
3.19,-3.660665,-1.853516
3.20,-3.679200,-1.902181
3.21,-3.698222,-1.952416
3.22,-3.717746,-2.004245
3.23,-3.737789,-2.057690
3.24,-3.758366,-2.112773
3.25,-3.779494,-2.169515
3.26,-3.801189,-2.227934
3.27,-3.823468,-2.288050
3.28,-3.846348,-2.349877
3.29,-3.869847,-2.413431
3.30,-3.893982,-2.478724
3.31,-3.918769,-2.545764
3.32,-3.944226,-2.614558
3.33,-3.970372,-2.685110
3.34,-3.997223,-2.757421
3.35,-4.024797,-2.831485
3.36,-4.053112,-2.907294
3.37,-4.082185,-2.984836
3.38,-4.112033,-3.064092
3.39,-4.142674,-3.145037
3.40,-4.174125,-3.227643
3.41,-4.206401,-3.311871
3.42,-4.239520,-3.397679
3.43,-4.273497,-3.485014
3.44,-4.308347,-3.573817
3.45,-4.344085,-3.664017
3.46,-4.380725,-3.755539
3.47,-4.418281,-3.848293
3.48,-4.456764,-3.942180
3.49,-4.496185,-4.037093
3.50,-4.536556,-4.132909
3.51,-4.577885,-4.229496
3.52,-4.620180,-4.326710
3.53,-4.663447,-4.424393
3.54,-4.707691,-4.522376
3.55,-4.752915,-4.620475
3.56,-4.799120,-4.718494
3.57,-4.846305,-4.816225
3.58,-4.894467,-4.913447
3.59,-4.943601,-5.009925
3.60,-4.993701,-5.105415
3.61,-5.044755,-5.199659
3.62,-5.096751,-5.292390
3.63,-5.149675,-5.383333
3.64,-5.203509,-5.472202
3.65,-5.258231,-5.558707
3.66,-5.313818,-5.642552
3.67,-5.370243,-5.723438
3.68,-5.427478,-5.801065
3.69,-5.485488,-5.875134
3.70,-5.544240,-5.945349
3.71,-5.603693,-6.011421
3.72,-5.663807,-6.073066
3.73,-5.724538,-6.130016
3.74,-5.785838,-6.182013
3.75,-5.847658,-6.228816
3.76,-5.909947,-6.270203
3.77,-5.972649,-6.305974
3.78,-6.035708,-6.335950
3.79,-6.099068,-6.359981
3.80,-6.162668,-6.377941
3.81,-6.226447,-6.389735
3.82,-6.290344,-6.395298
3.83,6.226391,-6.396000
3.84,6.162431,-6.390432
3.85,6.098527,-6.378615
3.86,6.034741,-6.360602
3.87,5.971135,-6.336480
3.88,5.907770,-6.306362
3.89,5.844706,-6.270393
3.90,5.782003,-6.228743
3.91,5.719715,-6.181610
3.92,5.657899,-6.129213
3.93,5.596607,-6.071792
3.94,5.535889,-6.009607
3.95,5.475793,-5.942932
3.96,5.416364,-5.872056
3.97,5.357643,-5.797277
3.98,5.299670,-5.718900
3.99,5.242481,-5.637237
4.00,5.186109,-5.552600
4.01,5.130583,-5.465303
4.02,5.075930,-5.375657
4.03,5.022173,-5.283969
4.04,4.969334,-5.190538
4.05,4.917428,-5.095659
4.06,4.866472,-4.999614
4.07,4.816475,-4.902676
4.08,4.767449,-4.805107
4.09,4.719398,-4.707155
4.10,4.672326,-4.609058
4.11,4.626236,-4.511036
4.12,4.581125,-4.413300
4.13,4.536992,-4.316044
4.14,4.493832,-4.219449
4.15,4.451637,-4.123683
4.16,4.410400,-4.028899
4.17,4.370111,-3.935239
4.18,4.330759,-3.842829
4.19,4.292331,-3.751786
4.20,4.254813,-3.662215
4.21,4.218191,-3.574207
4.22,4.182449,-3.487844
4.23,4.147570,-3.403200
4.24,4.113538,-3.320336
4.25,4.080335,-3.239307
4.26,4.047942,-3.160159
4.27,4.016340,-3.082929
4.28,3.985511,-3.007649
4.29,3.955434,-2.934343
4.30,3.926091,-2.863031
4.31,3.897461,-2.793727
4.32,3.869523,-2.726438
4.33,3.842259,-2.661169
4.34,3.815647,-2.597922
4.35,3.789668,-2.536692
4.36,3.764301,-2.477473
4.37,3.739526,-2.420258
4.38,3.715324,-2.365034
4.39,3.691674,-2.311788
4.40,3.668556,-2.260505
4.41,3.645951,-2.211170
4.42,3.623839,-2.163764
4.43,3.602201,-2.118268
4.44,3.581019,-2.074663
4.45,3.560272,-2.032929
4.46,3.539943,-1.993046
4.47,3.520012,-1.954993
4.48,3.500462,-1.918750
4.49,3.481275,-1.884296
4.50,3.462432,-1.851610
4.51,3.443916,-1.820673
4.52,3.425709,-1.791465
4.53,3.407794,-1.763967
4.54,3.390155,-1.738159
4.55,3.372773,-1.714026
4.56,3.355633,-1.691549
4.57,3.338717,-1.670711
4.58,3.322010,-1.651498
4.59,3.305495,-1.633895
4.60,3.289156,-1.617888
4.61,3.272977,-1.603465
4.62,3.256943,-1.590613
4.63,3.241037,-1.579322
4.64,3.225243,-1.569583
4.65,3.209548,-1.561386
4.66,3.193934,-1.554725
4.67,3.178386,-1.549593
4.68,3.162891,-1.545984
4.69,3.147431,-1.543895
4.70,3.131992,-1.543322
4.71,3.116559,-1.544264
4.72,3.101116,-1.546719
4.73,3.085649,-1.550689
4.74,3.070142,-1.556174
4.75,3.054580,-1.563178
4.76,3.038948,-1.571703
4.77,3.023231,-1.581755
4.78,3.007414,-1.593339
4.79,2.991480,-1.606462
4.80,2.975416,-1.621133
4.81,2.959204,-1.637360
4.82,2.942831,-1.655153
4.83,2.926279,-1.674524
4.84,2.909534,-1.695483
4.85,2.892579,-1.718044
4.86,2.875399,-1.742221
4.87,2.857976,-1.768027
4.88,2.840296,-1.795479
4.89,2.822341,-1.824591
4.90,2.804096,-1.855380
4.91,2.785542,-1.887863
4.92,2.766663,-1.922059
4.93,2.747443,-1.957983
4.94,2.727863,-1.995656
4.95,2.707906,-2.035095
4.96,2.687555,-2.076319
4.97,2.666792,-2.119345
4.98,2.645599,-2.164192
4.99,2.623957,-2.210879
5.00,2.601848,-2.259421
