TIME,ANGLE,ANGULAR_VELOCITY
0.00,2.748894,0.000000
0.01,2.748706,-0.037547
0.02,2.748143,-0.075128
0.03,2.747203,-0.112777
0.04,2.745887,-0.150528
0.05,2.744192,-0.188415
0.06,2.742118,-0.226473
0.07,2.739662,-0.264736
0.08,2.736822,-0.303237
0.09,2.733596,-0.342012
0.10,2.729981,-0.381095
0.11,2.725973,-0.420521
0.12,2.721569,-0.460324
0.13,2.716765,-0.500539
0.14,2.711557,-0.541202
0.15,2.705940,-0.582348
0.16,2.699908,-0.624011
0.17,2.693458,-0.666228
0.18,2.686582,-0.709033
0.19,2.679275,-0.752464
0.20,2.671530,-0.796555
0.21,2.663341,-0.841343
0.22,2.654701,-0.886864
0.23,2.645602,-0.933154
0.24,2.636035,-0.980248
0.25,2.625994,-1.028184
0.26,2.615469,-1.076998
0.27,2.604451,-1.126725
0.28,2.592931,-1.177402
0.29,2.580899,-1.229064
0.30,2.568346,-1.281748
0.31,2.555261,-1.335488
0.32,2.541633,-1.390319
0.33,2.527451,-1.446275
0.34,2.512704,-1.503391
0.35,2.497379,-1.561700
0.36,2.481465,-1.621234
0.37,2.464950,-1.682024
0.38,2.447821,-1.744100
0.39,2.430064,-1.807492
0.40,2.411666,-1.872226
0.41,2.392615,-1.938329
0.42,2.372895,-2.005824
0.43,2.352494,-2.074734
0.44,2.331396,-2.145077
0.45,2.309587,-2.216871
0.46,2.287053,-2.290129
0.47,2.263780,-2.364861
0.48,2.239751,-2.441076
0.49,2.214953,-2.518775
0.50,2.189371,-2.597957
0.51,2.162989,-2.678617
0.52,2.135794,-2.760743
0.53,2.107769,-2.844319
0.54,2.078902,-2.929322
0.55,2.049178,-3.015722
0.56,2.018583,-3.103483
0.57,1.987104,-3.192562
0.58,1.954728,-3.282907
0.59,1.921442,-3.374457
0.60,1.887235,-3.467143
0.61,1.852096,-3.560888
0.62,1.816014,-3.655601
0.63,1.778981,-3.751183
0.64,1.740988,-3.847526
0.65,1.702028,-3.944506
0.66,1.662096,-4.041992
0.67,1.621187,-4.139839
0.68,1.579299,-4.237889
0.69,1.536429,-4.335973
0.70,1.492580,-4.433911
0.71,1.447752,-4.531507
0.72,1.401951,-4.628557
0.73,1.355184,-4.724843
0.74,1.307458,-4.820136
0.75,1.258785,-4.914197
0.76,1.209179,-5.006778
0.77,1.158655,-5.097621
0.78,1.107233,-5.186460
0.79,1.054934,-5.273024
0.80,1.001781,-5.357035
0.81,0.947802,-5.438215
0.82,0.893027,-5.516282
0.83,0.837488,-5.590957
0.84,0.781220,-5.661960
0.85,0.724262,-5.729020
0.86,0.666654,-5.791872
0.87,0.608439,-5.850259
0.88,0.549664,-5.903938
0.89,0.490377,-5.952680
0.90,0.430628,-5.996273
0.91,0.370469,-6.034521
0.92,0.309956,-6.067253
0.93,0.249143,-6.094319
0.94,0.188089,-6.115594
0.95,0.126851,-6.130977
0.96,0.065489,-6.140396
0.97,0.004063,-6.143806
0.98,-0.057367,-6.141192
0.99,-0.118741,-6.132566
1.00,-0.179998,-6.117968
1.01,-0.241080,-6.097468
1.02,-0.301928,-6.071162
1.03,-0.362485,-6.039171
1.04,-0.422693,-6.001642
1.05,-0.482500,-5.958746
1.06,-0.541851,-5.910674
1.07,-0.600696,-5.857634
1.08,-0.658988,-5.799856
1.09,-0.716679,-5.737581
1.10,-0.773725,-5.671062
1.11,-0.830087,-5.600565
1.12,-0.885724,-5.526360
1.13,-0.940602,-5.448726
1.14,-0.994688,-5.367941
1.15,-1.047952,-5.284288
1.16,-1.100365,-5.198046
1.17,-1.151905,-5.109492
1.18,-1.202548,-5.018899
1.19,-1.252277,-4.926533
1.20,-1.301074,-4.832653
1.21,-1.348926,-4.737509
1.22,-1.395821,-4.641341
1.23,-1.441750,-4.544380
1.24,-1.486706,-4.446843
1.25,-1.530686,-4.348940
1.26,-1.573685,-4.250864
1.27,-1.615703,-4.152800
1.28,-1.656741,-4.054917
1.29,-1.696802,-3.957375
1.30,-1.735890,-3.860319
1.31,-1.774011,-3.763885
1.32,-1.811171,-3.668196
1.33,-1.847378,-3.573362
1.34,-1.882641,-3.479484
1.35,-1.916971,-3.386653
1.36,-1.950378,-3.294948
1.37,-1.982874,-3.204440
1.38,-2.014471,-3.115191
1.39,-2.045182,-3.027253
1.40,-2.075020,-2.940670
1.41,-2.104000,-2.855481
1.42,-2.132135,-2.771715
1.43,-2.159439,-2.689396
1.44,-2.185928,-2.608541
1.45,-2.211615,-2.529163
1.46,-2.236516,-2.451267
1.47,-2.260645,-2.374857
1.48,-2.284018,-2.299929
1.49,-2.306649,-2.226476
1.50,-2.328552,-2.154490
1.51,-2.349743,-2.083955
1.52,-2.370236,-2.014857
1.53,-2.390045,-1.947176
1.54,-2.409184,-1.880890
1.55,-2.427667,-1.815976
1.56,-2.445508,-1.752409
1.57,-2.462720,-1.690160
1.58,-2.479316,-1.629202
1.59,-2.495308,-1.569504
1.60,-2.510710,-1.511035
1.61,-2.525533,-1.453763
1.62,-2.539789,-1.397655
1.63,-2.553490,-1.342677
1.64,-2.566646,-1.288794
1.65,-2.579269,-1.235973
1.66,-2.591369,-1.184178
1.67,-2.602956,-1.133373
1.68,-2.614040,-1.083522
1.69,-2.624630,-1.034590
1.70,-2.634735,-0.986540
1.71,-2.644363,-0.939336
1.72,-2.653524,-0.892942
1.73,-2.662225,-0.847321
1.74,-2.670473,-0.802439
1.75,-2.678276,-0.758257
1.76,-2.685640,-0.714741
1.77,-2.692573,-0.671855
1.78,-2.699079,-0.629562
1.79,-2.705166,-0.587828
1.80,-2.710838,-0.546616
1.81,-2.716100,-0.505891
1.82,-2.720957,-0.465619
1.83,-2.725414,-0.425763
1.84,-2.729473,-0.386290
1.85,-2.733140,-0.347163
1.86,-2.736418,-0.308350
1.87,-2.739308,-0.269814
1.88,-2.741815,-0.231522
1.89,-2.743940,-0.193439
1.90,-2.745684,-0.155531
1.91,-2.747051,-0.117764
1.92,-2.748040,-0.080103
1.93,-2.748653,-0.042515
1.94,-2.748890,-0.004966
1.95,-2.748752,0.032579
1.96,-2.748239,0.070154
1.97,-2.747349,0.107792
1.98,-2.746082,0.145528
1.99,-2.744438,0.183395
2.00,-2.742414,0.221428
2.01,-2.740009,0.259662
2.02,-2.737220,0.298130
2.03,-2.734045,0.336867
2.04,-2.730482,0.375907
2.05,-2.726526,0.415285
2.06,-2.722175,0.455037
2.07,-2.717424,0.495195
2.08,-2.712269,0.535797
2.09,-2.706706,0.576876
2.10,-2.700730,0.618469
2.11,-2.694335,0.660611
2.12,-2.687516,0.703337
2.13,-2.680266,0.746682
2.14,-2.672580,0.790684
2.15,-2.664450,0.835378
2.16,-2.655870,0.880800
2.17,-2.646832,0.926986
2.18,-2.637328,0.973972
2.19,-2.627350,1.021794
2.20,-2.616889,1.070490
2.21,-2.605937,1.120094
2.22,-2.594484,1.170643
2.23,-2.582521,1.222173
2.24,-2.570037,1.274720
2.25,-2.557023,1.328318
2.26,-2.543467,1.383002
2.27,-2.529359,1.438808
2.28,-2.514687,1.495769
2.29,-2.499440,1.553918
2.30,-2.483605,1.613288
2.31,-2.467170,1.673910
2.32,-2.450122,1.735814
2.33,-2.432449,1.799030
2.34,-2.414137,1.863586
2.35,-2.395173,1.929506
2.36,-2.375542,1.996816
2.37,-2.355232,2.065537
2.38,-2.334227,2.135690
2.39,-2.312513,2.207291
2.40,-2.290076,2.280355
2.41,-2.266901,2.354892
2.42,-2.242973,2.430910
2.43,-2.218278,2.508412
2.44,-2.192800,2.587399
2.45,-2.166525,2.667864
2.46,-2.139438,2.749797
2.47,-2.111524,2.833182
2.48,-2.082770,2.917998
2.49,-2.053160,3.004215
2.50,-2.022681,3.091798
2.51,-1.991319,3.180706
2.52,-1.959062,3.270886
2.53,-1.925897,3.362281
2.54,-1.891813,3.454822
2.55,-1.856797,3.548431
2.56,-1.820841,3.643021
2.57,-1.783934,3.738495
2.58,-1.746068,3.834743
2.59,-1.707237,3.931647
2.60,-1.667434,4.029074
2.61,-1.626654,4.126882
2.62,-1.584895,4.224914
2.63,-1.542156,4.323004
2.64,-1.498436,4.420972
2.65,-1.453737,4.518625
2.66,-1.408065,4.615759
2.67,-1.361425,4.712159
2.68,-1.313825,4.807597
2.69,-1.265277,4.901836
2.70,-1.215793,4.994627
2.71,-1.165390,5.085715
2.72,-1.114085,5.174834
2.73,-1.061901,5.261714
2.74,-1.008859,5.346080
2.75,-0.954988,5.427650
2.76,-0.900317,5.506145
2.77,-0.844877,5.581284
2.78,-0.788703,5.652789
2.79,-0.731834,5.720386
2.80,-0.674309,5.783809
2.81,-0.616172,5.842801
2.82,-0.557469,5.897117
2.83,-0.498247,5.946525
2.84,-0.438555,5.990809
2.85,-0.378448,6.029775
2.86,-0.317978,6.063246
2.87,-0.257202,6.091069
2.88,-0.196176,6.113116
2.89,-0.134959,6.129283
2.90,-0.073610,6.139494
2.91,-0.012189,6.143701
2.92,0.049244,6.141883
2.93,0.110628,6.134051
2.94,0.171905,6.120240
2.95,0.233013,6.100515
2.96,0.293896,6.074970
2.97,0.354494,6.043723
2.98,0.414751,6.006918
2.99,0.474614,5.964721
3.00,0.534029,5.917322
3.01,0.592944,5.864927
3.02,0.651311,5.807762
3.03,0.709084,5.746067
3.04,0.766218,5.680095
3.05,0.822673,5.610108
3.06,0.878408,5.536378
3.07,0.933389,5.459181
3.08,0.987581,5.378797
3.09,1.040955,5.295507
3.10,1.093482,5.209592
3.11,1.145139,5.121328
3.12,1.195902,5.030989
3.13,1.245753,4.938843
3.14,1.294674,4.845148
3.15,1.342651,4.750157
3.16,1.389673,4.654111
3.17,1.435731,4.557242
3.18,1.480816,4.459770
3.19,1.524925,4.361903
3.20,1.568054,4.263840
3.21,1.610202,4.165764
3.22,1.651369,4.067847
3.23,1.691560,3.970252
3.24,1.730776,3.873124
3.25,1.769024,3.776600
3.26,1.806310,3.680805
3.27,1.842643,3.585852
3.28,1.878031,3.491843
3.29,1.912483,3.398868
3.30,1.946012,3.307010
3.31,1.978627,3.216341
3.32,2.010343,3.126922
3.33,2.041170,3.038807
3.34,2.071123,2.952043
3.35,2.100216,2.866668
3.36,2.128461,2.782712
3.37,2.155875,2.700200
3.38,2.182470,2.619151
3.39,2.208263,2.539577
3.40,2.233267,2.461485
3.41,2.257497,2.384878
3.42,2.280969,2.309754
3.43,2.303697,2.236107
3.44,2.325696,2.163927
3.45,2.346981,2.093202
3.46,2.367565,2.023915
3.47,2.387464,1.956047
3.48,2.406691,1.889578
3.49,2.425260,1.824484
3.50,2.443185,1.760740
3.51,2.460479,1.698319
3.52,2.477156,1.637191
3.53,2.493227,1.577328
3.54,2.508706,1.518699
3.55,2.523605,1.461270
3.56,2.537936,1.405010
3.57,2.551709,1.349885
3.58,2.564937,1.295860
3.59,2.577630,1.242900
3.60,2.589798,1.190971
3.61,2.601453,1.140037
3.62,2.612602,1.090062
3.63,2.623257,1.041010
3.64,2.633426,0.992846
3.65,2.643117,0.945532
3.66,2.652339,0.899033
3.67,2.661100,0.853312
3.68,2.669408,0.808334
3.69,2.677269,0.764062
3.70,2.684691,0.720460
3.71,2.691680,0.677493
3.72,2.698243,0.635124
3.73,2.704385,0.593317
3.74,2.710111,0.552038
3.75,2.715427,0.511251
3.76,2.720338,0.470921
3.77,2.724847,0.431012
3.78,2.728959,0.391490
3.79,2.732678,0.352320
3.80,2.736007,0.313467
3.81,2.738948,0.274896
3.82,2.741505,0.236574
3.83,2.743680,0.198465
3.84,2.745475,0.160536
3.85,2.746892,0.122752
3.86,2.747931,0.085079
3.87,2.748593,0.047484
3.88,2.748880,0.009931
3.89,2.748792,-0.027613
3.90,2.748328,-0.065181
3.91,2.747488,-0.102809
3.92,2.746272,-0.140530
3.93,2.744677,-0.178378
3.94,2.742704,-0.216387
3.95,2.740349,-0.254592
3.96,2.737611,-0.293027
3.97,2.734487,-0.331727
3.98,2.730975,-0.370725
3.99,2.727072,-0.410056
4.00,2.722773,-0.449756
4.01,2.718075,-0.489859
4.02,2.712974,-0.530400
4.03,2.707466,-0.571414
4.04,2.701544,-0.612937
4.05,2.695205,-0.655004
4.06,2.688442,-0.697651
4.07,2.681250,-0.740912
4.08,2.673622,-0.784825
4.09,2.665551,-0.829425
4.10,2.657031,-0.874749
4.11,2.648054,-0.920832
4.12,2.638612,-0.967710
4.13,2.628697,-1.015420
4.14,2.618300,-1.063998
4.15,2.607414,-1.113480
4.16,2.596028,-1.163902
4.17,2.584133,-1.215300
4.18,2.571718,-1.267710
4.19,2.558775,-1.321167
4.20,2.545291,-1.375706
4.21,2.531257,-1.431361
4.22,2.516660,-1.488167
4.23,2.501490,-1.546158
4.24,2.485733,-1.605364
4.25,2.469378,-1.665819
4.26,2.452413,-1.727552
4.27,2.434823,-1.790593
4.28,2.416596,-1.854969
4.29,2.397719,-1.920708
4.30,2.378177,-1.987833
4.31,2.357958,-2.056366
4.32,2.337045,-2.126328
4.33,2.315426,-2.197737
4.34,2.293086,-2.270606
4.35,2.270009,-2.344948
4.36,2.246182,-2.420770
4.37,2.221589,-2.498076
4.38,2.196215,-2.576866
4.39,2.170047,-2.657136
4.40,2.143068,-2.738876
4.41,2.115264,-2.822071
4.42,2.086622,-2.906698
4.43,2.057126,-2.992732
4.44,2.026762,-3.080137
4.45,1.995518,-3.168872
4.46,1.963381,-3.258887
4.47,1.930337,-3.350125
4.48,1.896374,-3.442518
4.49,1.861483,-3.535991
4.50,1.825651,-3.630457
4.51,1.788870,-3.725820
4.52,1.751132,-3.821973
4.53,1.712429,-3.918797
4.54,1.672754,-4.016163
4.55,1.632104,-4.113929
4.56,1.590475,-4.211941
4.57,1.547865,-4.310033
4.58,1.504275,-4.408028
4.59,1.459706,-4.505734
4.60,1.414162,-4.602949
4.61,1.367649,-4.699459
4.62,1.320176,-4.795037
4.63,1.271752,-4.889448
4.64,1.222391,-4.982446
4.65,1.172109,-5.073774
4.66,1.120922,-5.163169
4.67,1.068853,-5.250361
4.68,1.015923,-5.335075
4.69,0.962160,-5.417031
4.70,0.907593,-5.495949
4.71,0.852252,-5.571548
4.72,0.796174,-5.643550
4.73,0.739394,-5.711679
4.74,0.681954,-5.775669
4.75,0.623896,-5.835262
4.76,0.565264,-5.890209
4.77,0.506108,-5.940279
4.78,0.446476,-5.985253
4.79,0.386420,-6.024933
4.80,0.325995,-6.059140
4.81,0.265256,-6.087718
4.82,0.204260,-6.110535
4.83,0.143065,-6.127485
4.84,0.081730,-6.138487
4.85,0.020315,-6.143490
4.86,-0.041119,-6.142470
4.87,-0.102514,-6.135431
4.88,-0.163808,-6.122407
4.89,-0.224942,-6.103460
4.90,-0.285858,-6.078679
4.91,-0.346497,-6.048179
4.92,-0.406803,-6.012099
4.93,-0.466721,-5.970605
4.94,-0.526198,-5.923882
4.95,-0.585182,-5.872136
4.96,-0.643624,-5.815588
4.97,-0.701478,-5.754478
4.98,-0.758699,-5.689057
4.99,-0.815246,-5.619586
5.00,-0.871079,-5.546335
5.01,-0.926161,-5.469581
5.02,-0.980459,-5.389602
5.03,-1.033943,-5.306681
5.04,-1.086584,-5.221096
5.05,-1.138357,-5.133127
5.06,-1.189240,-5.043048
5.07,-1.239212,-4.951125
5.08,-1.288257,-4.857621
5.09,-1.336360,-4.762787
5.10,-1.383509,-4.666867
5.11,-1.429694,-4.570094
5.12,-1.474909,-4.472689
5.13,-1.519147,-4.374863
5.14,-1.562405,-4.276815
5.15,-1.604683,-4.178730
5.16,-1.645980,-4.080784
5.17,-1.686300,-3.983136
5.18,-1.725645,-3.885939
5.19,-1.764020,-3.789328
5.20,-1.801434,-3.693430
5.21,-1.837892,-3.598359
5.22,-1.873404,-3.504220
5.23,-1.907980,-3.411103
5.24,-1.941630,-3.319093
5.25,-1.974365,-3.228263
5.26,-2.006199,-3.138675
5.27,-2.037143,-3.050385
5.28,-2.067211,-2.963440
5.29,-2.096417,-2.877879
5.30,-2.124773,-2.793734
5.31,-2.152296,-2.711030
5.32,-2.178999,-2.629787
5.33,-2.204897,-2.550017
5.34,-2.230004,-2.471729
5.35,-2.254336,-2.394926
5.36,-2.277908,-2.319606
5.37,-2.300733,-2.245764
5.38,-2.322828,-2.173391
5.39,-2.344206,-2.102474
5.40,-2.364882,-2.032997
5.41,-2.384871,-1.964943
5.42,-2.404186,-1.898291
5.43,-2.422841,-1.833016
5.44,-2.440851,-1.769095
5.45,-2.458227,-1.706500
5.46,-2.474985,-1.645203
5.47,-2.491136,-1.585175
5.48,-2.506692,-1.526384
5.49,-2.521667,-1.468798
5.50,-2.536072,-1.412386
5.51,-2.549919,-1.357112
5.52,-2.563218,-1.302943
5.53,-2.575981,-1.249845
5.54,-2.588219,-1.197782
5.55,-2.599940,-1.146718
5.56,-2.611156,-1.096618
5.57,-2.621876,-1.047447
5.58,-2.632108,-0.999167
5.59,-2.641862,-0.951743
5.60,-2.651146,-0.905138
5.61,-2.659967,-0.859316
5.62,-2.668335,-0.814242
5.63,-2.676255,-0.769879
5.64,-2.683734,-0.726190
5.65,-2.690780,-0.683141
5.66,-2.697399,-0.640694
5.67,-2.703596,-0.598816
5.68,-2.709377,-0.557469
5.69,-2.714747,-0.516619
5.70,-2.719711,-0.476230
5.71,-2.724273,-0.436268
5.72,-2.728438,-0.396697
5.73,-2.732208,-0.357482
5.74,-2.735589,-0.318589
5.75,-2.738581,-0.279983
5.76,-2.741189,-0.241630
5.77,-2.743414,-0.203495
5.78,-2.745260,-0.165544
5.79,-2.746726,-0.127743
5.80,-2.747815,-0.090057
5.81,-2.748527,-0.052453
5.82,-2.748864,-0.014897
5.83,-2.748825,0.022646
5.84,-2.748411,0.060209
5.85,-2.747621,0.097827
5.86,-2.746454,0.135534
5.87,-2.744910,0.173363
5.88,-2.742986,0.211349
5.89,-2.740682,0.249527
5.90,-2.737995,0.287929
5.91,-2.734923,0.326591
5.92,-2.731462,0.365548
5.93,-2.727611,0.404834
5.94,-2.723364,0.444483
5.95,-2.718720,0.484530
5.96,-2.713672,0.525011
5.97,-2.708218,0.565961
5.98,-2.702351,0.607415
5.99,-2.696068,0.649408
6.00,-2.689361,0.691975
6.01,-2.682226,0.735154
6.02,-2.674656,0.778978
6.03,-2.666644,0.823486
6.04,-2.658184,0.868711
6.05,-2.649268,0.914691
6.06,-2.639888,0.961462
6.07,-2.630036,1.009060
6.08,-2.619704,1.057521
6.09,-2.608882,1.106882
6.10,-2.597563,1.157177
6.11,-2.585735,1.208444
6.12,-2.573391,1.260718
6.13,-2.560518,1.314035
6.14,-2.547106,1.368429
6.15,-2.533145,1.423935
6.16,-2.518624,1.480587
6.17,-2.503530,1.538418
6.18,-2.487851,1.597462
6.19,-2.471576,1.657750
6.20,-2.454692,1.719312
6.21,-2.437186,1.782178
6.22,-2.419044,1.846377
6.23,-2.400254,1.911934
6.24,-2.380801,1.978874
6.25,-2.360671,2.047220
6.26,-2.339852,2.116992
6.27,-2.318327,2.188208
6.28,-2.296083,2.260884
6.29,-2.273104,2.335030
6.30,-2.249377,2.410656
6.31,-2.224886,2.487766
6.32,-2.199617,2.566360
6.33,-2.173554,2.646435
6.34,-2.146683,2.727981
6.35,-2.118990,2.810984
6.36,-2.090459,2.895423
6.37,-2.061076,2.981273
6.38,-2.030829,3.068499
6.39,-1.999702,3.157061
6.40,-1.967683,3.246910
6.41,-1.934760,3.337990
6.42,-1.900919,3.430234
6.43,-1.866151,3.523569
6.44,-1.830445,3.617909
6.45,-1.793790,3.713159
6.46,-1.756179,3.809214
6.47,-1.717604,3.905956
6.48,-1.678058,4.003258
6.49,-1.637537,4.100980
6.50,-1.596037,4.198969
6.51,-1.553557,4.297061
6.52,-1.510096,4.395079
6.53,-1.465657,4.492834
6.54,-1.420241,4.590126
6.55,-1.373856,4.686742
6.56,-1.326509,4.782457
6.57,-1.278211,4.877037
6.58,-1.228973,4.970236
6.59,-1.178812,5.061799
6.60,-1.127744,5.151466
6.61,-1.075790,5.238965
6.62,-1.022972,5.324022
6.63,-0.969318,5.406360
6.64,-0.914855,5.485696
6.65,-0.859615,5.561750
6.66,-0.803632,5.634243
6.67,-0.746943,5.702900
6.68,-0.689588,5.767453
6.69,-0.631609,5.827641
6.70,-0.573050,5.883217
6.71,-0.513960,5.933944
6.72,-0.454388,5.979604
6.73,-0.394386,6.019995
6.74,-0.334007,6.054936
6.75,-0.273306,6.084266
6.76,-0.212341,6.107852
6.77,-0.151168,6.125583
6.78,-0.089849,6.137375
6.79,-0.028441,6.143174
6.80,0.032995,6.142950
6.81,0.094398,6.136706
6.82,0.155709,6.124471
6.83,0.216868,6.106303
6.84,0.277815,6.082288
6.85,0.338494,6.052536
6.86,0.398848,6.017186
6.87,0.458820,5.976398
6.88,0.518358,5.930355
6.89,0.577410,5.879261
6.90,0.635927,5.823335
6.91,0.693862,5.762814
6.92,0.751169,5.697948
6.93,0.807807,5.628997
6.94,0.863736,5.556231
6.95,0.918920,5.479924
6.96,0.973324,5.400356
6.97,1.026917,5.317807
6.98,1.079671,5.232559
6.99,1.131560,5.144890
7.00,1.182561,5.055074
7.01,1.232655,4.963380
7.02,1.281824,4.870070
7.03,1.330052,4.775398
7.04,1.377328,4.679608
7.05,1.423641,4.582935
7.06,1.468984,4.485601
7.07,1.513352,4.387819
7.08,1.556740,4.289789
7.09,1.599147,4.191699
7.10,1.640574,4.093725
7.11,1.681023,3.996029
7.12,1.720496,3.898764
7.13,1.759000,3.802068
7.14,1.796540,3.706069
7.15,1.833124,3.610883
7.16,1.868761,3.516614
7.17,1.903460,3.423358
7.18,1.937232,3.331197
7.19,1.970088,3.240207
7.20,2.002040,3.150451
7.21,2.033101,3.061987
7.22,2.063284,2.974861
7.23,2.092603,2.889115
7.24,2.121071,2.804781
7.25,2.148703,2.721886
7.26,2.175514,2.640448
7.27,2.201517,2.560483
7.28,2.226728,2.481999
7.29,2.251162,2.404999
7.30,2.274833,2.329483
7.31,2.297757,2.255446
7.32,2.319947,2.182879
7.33,2.341419,2.111771
7.34,2.362187,2.042105
7.35,2.382266,1.973864
7.36,2.401669,1.907027
7.37,2.420411,1.841572
7.38,2.438505,1.777473
7.39,2.455965,1.714704
7.40,2.472803,1.653237
7.41,2.489034,1.593043
7.42,2.504668,1.534090
7.43,2.519720,1.476347
7.44,2.534199,1.419781
7.45,2.548119,1.364359
7.46,2.561490,1.310046
7.47,2.574324,1.256808
7.48,2.586630,1.204610
7.49,2.598419,1.153416
7.50,2.609701,1.103191
7.51,2.620486,1.053898
7.52,2.630782,1.005503
7.53,2.640599,0.957967
7.54,2.649944,0.911256
7.55,2.658827,0.865333
7.56,2.667254,0.820162
7.57,2.675232,0.775707
7.58,2.682770,0.731931
7.59,2.689873,0.688799
7.60,2.696548,0.646275
7.61,2.702801,0.604324
7.62,2.708636,0.562909
7.63,2.714060,0.521995
7.64,2.719078,0.481547
7.65,2.723693,0.441530
7.66,2.727910,0.401909
7.67,2.731732,0.362649
7.68,2.735164,0.323716
7.69,2.738207,0.285074
7.70,2.740866,0.246689
7.71,2.743142,0.208527
7.72,2.745037,0.170554
7.73,2.746554,0.132735
7.74,2.747692,0.095036
7.75,2.748455,0.057423
7.76,2.748841,0.019863
7.77,2.748852,-0.017680
7.78,2.748487,-0.055239
7.79,2.747747,-0.092847
7.80,2.746630,-0.130540
7.81,2.745136,-0.168351
7.82,2.743263,-0.206315
7.83,2.741009,-0.244465
7.84,2.738373,-0.282836
7.85,2.735351,-0.321462
7.86,2.731942,-0.360377
7.87,2.728143,-0.399617
7.88,2.723949,-0.439216
7.89,2.719357,-0.479209
7.90,2.714363,-0.519631
7.91,2.708963,-0.560517
7.92,2.703151,-0.601902
7.93,2.696923,-0.643821
7.94,2.690273,-0.686311
7.95,2.683195,-0.729406
7.96,2.675683,-0.773144
7.97,2.667730,-0.817558
7.98,2.659329,-0.862687
7.99,2.650473,-0.908565
8.00,2.641155,-0.955230
8.01,2.631366,-1.002716
8.02,2.621098,-1.051061
8.03,2.610342,-1.100300
8.04,2.599089,-1.150470
8.05,2.587329,-1.201607
8.06,2.575053,-1.253745
8.07,2.562251,-1.306922
8.08,2.548911,-1.361171
8.09,2.535024,-1.416528
8.10,2.520577,-1.473027
8.11,2.505559,-1.530700
8.12,2.489959,-1.589582
8.13,2.473764,-1.649703
8.14,2.456961,-1.711095
8.15,2.439537,-1.773788
8.16,2.421480,-1.837808
8.17,2.402777,-1.903184
8.18,2.383412,-1.969940
8.19,2.363373,-2.038099
8.20,2.342645,-2.107681
8.21,2.321215,-2.178706
8.22,2.299067,-2.251187
8.23,2.276186,-2.325138
8.24,2.252559,-2.400568
8.25,2.228170,-2.477482
8.26,2.203004,-2.555880
8.27,2.177047,-2.635759
8.28,2.150284,-2.717111
8.29,2.122700,-2.799923
8.30,2.094281,-2.884173
8.31,2.065012,-2.969838
